-109 -28 20 10 -34 -82 -94 -46
-117 -39 43 -16 -59 -69 -122 -59
-97 -62 43 -32 -73 -67 -104 -32
-74 -97 14 -53 -73 -101 -121 -50
-41 -87 29 -14 -62 -83 -124 -43
-54 -76 39 0 -84 -90 -98 -50
-72 -81 67 -18 -35 -89 -117 -54
-81 -83 69 -5 -49 -83 -110 -41
-75 -65 45 -9 -76 -84 -114 -84
-109 -96 64 -12 -71 -79 -109 -74
-103 -78 61 -15 -90 -80 -103 -74
-69 -92 57 -20 -63 -87 -91 -78
-86 -98 31 -29 -98 -82 -103 -77
-83 -80 32 -28 -93 -79 -101 -67
-78 -70 29 -24 -92 -76 -91 -74
-68 -55 29 -17 -90 -77 -94 -76
-51 -62 45 -4 -65 -87 -95 -76
-48 -80 36 -5 -84 -105 -111 -85
-55 -92 49 -14 -89 -95 -125 -88
-41 -85 52 -15 -88 -98 -127 -96
-41 -88 51 -11 -89 -93 -110 -87
-51 -97 47 -14 -89 -83 -106 -77
-43 -86 58 -8 -80 -80 -95 -77
-41 -81 67 9 -76 -81 -84 -81
-52 -96 61 3 -87 -79 -97 -98
-55 -100 65 -4 -77 -89 -100 -94
-57 -85 52 -19 -97 -90 -107 -97
-59 -87 46 -15 -96 -91 -125 -98
-53 -93 42 5 -81 -104 -124 -100
-53 -82 36 2 -84 -106 -110 -110
-55 -91 42 -5 -99 -109 -120 -107
-53 -98 42 -6 -95 -105 -130 -101
-53 -97 41 -13 -97 -103 -117 -99
-64 -97 32 -10 -110 -101 -121 -104
-67 -101 32 -10 -107 -102 -130 -108
-67 -89 38 -8 -98 -94 -124 -106
-59 -81 47 -7 -92 -101 -119 -101
-67 -89 50 -10 -99 -113 -123 -100
-76 -86 57 -17 -102 -111 -124 -103
-72 -89 64 -18 -96 -108 -125 -112
-74 -83 64 -11 -96 -103 -121 -106
-70 -70 56 -10 -89 -106 -112 -96
-68 -66 63 -6 -86 -100 -119 -95
-58 -69 73 0 -84 -103 -115 -92
-62 -78 73 -2 -88 -108 -117 -97
-62 -87 61 0 -99 -114 -129 -103
-65 -98 51 -5 -107 -117 -132 -110
-57 -98 54 -4 -99 -111 -130 -104
-52 -93 54 5 -89 -117 -121 -95
-55 -95 50 10 -85 -105 -117 -92
-57 -102 48 7 -84 -103 -118 -92
-56 -105 53 5 -80 -102 -124 -99
-57 -102 53 5 -81 -99 -121 -98
-53 -102 44 0 -89 -100 -121 -98
-55 -94 37 -3 -90 -99 -125 -98
-55 -91 46 -5 -90 -103 -122 -96
-46 -89 48 0 -85 -111 -117 -97
-51 -82 46 4 -81 -112 -112 -96
-54 -85 51 0 -76 -106 -114 -95
-51 -89 51 -2 -72 -108 -123 -92
-55 -78 56 1 -73 -108 -125 -93
-56 -71 45 0 -83 -115 -125 -95
-57 -81 37 -3 -81 -115 -129 -96
-58 -78 45 -2 -77 -114 -129 -100
-51 -75 50 -1 -86 -124 -126 -98
-53 -86 43 0 -93 -119 -134 -94
-63 -92 37 -3 -87 -117 -137 -100
-59 -85 41 -1 -81 -115 -133 -105
-57 -80 42 0 -82 -114 -133 -102
-61 -79 41 -1 -87 -116 -136 -97
-61 -84 40 -7 -90 -119 -138 -99
-56 -88 46 -8 -88 -117 -135 -101
-56 -83 52 -4 -90 -119 -130 -103
-54 -80 48 -4 -87 -120 -128 -94
-50 -88 55 -8 -79 -109 -128 -91
-45 -87 60 -5 -81 -113 -128 -91
-49 -86 60 -3 -83 -115 -126 -92
-53 -87 53 -6 -78 -117 -126 -93
-50 -80 52 -3 -77 -110 -123 -97
-45 -77 47 -3 -76 -104 -122 -93
-36 -71 46 -6 -73 -108 -124 -91
-36 -66 43 3 -70 -109 -126 -94
-41 -78 41 10 -77 -110 -137 -103
-43 -85 43 7 -70 -106 -139 -103
-44 -81 51 18 -65 -103 -128 -101
-40 -69 44 27 -68 -96 -122 -94
-49 -64 48 27 -58 -92 -115 -98
-53 -54 50 23 -55 -95 -111 -88
-52 -61 59 16 -70 -104 -111 -88
-54 -65 60 15 -68 -106 -117 -95
-64 -71 75 21 -66 -113 -121 -96
-58 -67 79 26 -60 -102 -120 -93
-63 -55 87 28 -54 -88 -123 -91
-47 -41 85 28 -52 -89 -115 -76
-46 -37 77 23 -49 -85 -102 -67
-39 -20 73 28 -46 -88 -91 -62
-34 -4 78 36 -43 -95 -78 -57
-18 9 77 41 -30 -81 -76 -43
-20 22 76 53 -22 -72 -67 -39
-4 26 79 57 -1 -60 -66 -29
5 34 82 75 12 -38 -49 -32
8 38 82 87 20 -27 -50 -29
13 37 74 88 26 -23 -48 -28
25 59 78 89 23 -26 -48 -17
22 72 74 77 18 -25 -42 -14
22 79 77 72 4 -22 -46 -9
29 85 64 73 8 -17 -41 -9
25 73 62 68 1 -15 -49 -15
34 77 46 66 -6 -27 -49 -16
35 71 48 56 -4 -31 -46 -20
46 73 35 63 -5 -29 -42 -16
55 70 37 59 -9 -23 -37 -13
60 65 29 47 -5 -23 -39 -17
54 65 19 34 -21 -26 -41 -9
52 65 4 17 -29 -25 -47 -4
34 58 3 3 -40 -30 -39 -10
41 63 0 -9 -46 -43 -43 -5
22 40 -9 -21 -57 -43 -45 -14
16 35 -12 -34 -63 -57 -58 -15
11 21 -14 -47 -67 -71 -59 -25
11 25 -19 -47 -75 -75 -66 -26
4 14 -24 -47 -82 -74 -63 -38
0 6 -27 -51 -81 -71 -71 -33
-2 2 -37 -48 -82 -62 -70 -42
0 2 -32 -44 -81 -64 -63 -33
-5 -4 -32 -45 -77 -60 -52 -33
-12 0 -16 -42 -69 -62 -45 -29
-28 -17 -17 -43 -64 -56 -51 -36
-36 -12 -1 -46 -64 -59 -58 -30
-46 -13 6 -46 -61 -79 -66 -42
-60 -16 14 -37 -59 -78 -76 -52
-54 -16 18 -33 -56 -84 -77 -59
-63 -25 19 -35 -55 -82 -84 -70
-62 -23 22 -41 -64 -93 -100 -68
-66 -42 26 -41 -66 -97 -105 -59
-81 -49 22 -39 -78 -98 -107 -74
-80 -65 19 -39 -93 -105 -111 -74
-96 -79 13 -35 -96 -98 -121 -83
-96 -97 11 -44 -91 -112 -121 -93
-103 -107 17 -45 -94 -119 -123 -95
-100 -105 22 -48 -91 -125 -128 -92
-104 -104 36 -45 -93 -126 -135 -96
-116 -109 26 -57 -100 -121 -142 -96
-117 -91 22 -59 -98 -131 -141 -106
-102 -87 25 -45 -93 -121 -143 -101
-103 -90 34 -36 -91 -116 -131 -94
-108 -83 38 -31 -86 -123 -121 -93
-98 -82 32 -29 -82 -124 -119 -92
-92 -97 35 -21 -86 -121 -132 -98
-92 -106 47 -24 -85 -121 -134 -90
-96 -114 47 -28 -87 -135 -137 -85
-95 -108 43 -14 -103 -140 -141 -90
-89 -124 30 -21 -103 -133 -140 -104
-90 -122 37 -17 -87 -120 -118 -98
-83 -123 36 -26 -70 -115 -116 -87
-81 -123 31 -15 -69 -119 -126 -68
-72 -118 57 -17 -68 -125 -124 -63
-97 -118 65 -7 -76 -131 -130 -88
-91 -175 58 23 -54 -120 -170 -113
-105 -187 87 73 -40 -124 -175 -145
-105 -177 184 97 21 -130 -185 -175
-126 -203 211 212 71 -138 -187 -182
-152 -189 283 251 103 -86 -171 -199
-153 -157 315 296 156 -89 -160 -189
-160 -170 329 398 218 -69 -180 -210
-124 -101 357 471 286 -1 -148 -209
-88 -52 344 577 354 97 -69 -141
-33 -25 333 654 437 209 38 -59
21 41 284 646 477 334 152 27
172 123 212 609 545 442 259 135
253 160 83 508 497 518 442 272
349 329 15 381 442 673 678 473
472 448 -97 180 426 781 890 674
569 534 -234 -75 331 948 1090 883
650 574 -378 -301 275 1098 1243 1073
721 708 -519 -575 235 1145 1426 1182
808 854 -578 -751 148 1246 1582 1378
878 861 -651 -858 137 1339 1651 1462
851 801 -632 -962 121 1310 1635 1461
757 698 -606 -1078 -28 1187 1476 1346
689 609 -578 -1154 -254 942 1244 1146
534 466 -550 -1229 -441 666 996 984
388 421 -547 -1255 -571 450 738 849
275 267 -500 -1254 -640 225 503 647
123 177 -489 -1226 -841 -35 294 443
33 70 -389 -1239 -984 -296 25 262
-38 -29 -310 -1175 -1111 -564 -145 58
-178 -138 -264 -1156 -1198 -738 -343 -81
-272 -181 -182 -1091 -1199 -815 -466 -146
-290 -186 -177 -1004 -1086 -768 -512 -251
-280 -231 -162 -906 -1005 -679 -488 -274
-290 -229 -170 -834 -936 -637 -462 -297
-293 -220 -130 -778 -830 -579 -452 -301
-273 -225 -104 -632 -715 -513 -426 -289
-245 -233 -82 -545 -609 -445 -405 -270
-224 -196 -52 -411 -509 -374 -342 -251
-187 -177 -43 -320 -388 -286 -315 -228
-147 -172 -55 -232 -347 -260 -290 -189
-130 -147 -54 -188 -318 -254 -248 -196
-98 -139 -23 -152 -250 -191 -202 -135
-66 -123 -16 -111 -198 -175 -156 -128
-54 -123 8 -77 -159 -149 -138 -117
-77 -129 18 -63 -128 -98 -116 -119
-90 -129 19 -27 -110 -83 -95 -104
-75 -128 49 -3 -90 -54 -110 -103
-62 -130 52 -5 -86 -64 -104 -101
-75 -135 37 7 -72 -57 -108 -117
-77 -130 56 17 -87 -57 -114 -131
-69 -139 48 16 -96 -74 -128 -131
-75 -149 38 9 -102 -75 -148 -126
-78 -143 14 19 -80 -78 -160 -125
-95 -147 17 17 -80 -71 -155 -137
-102 -136 35 28 -81 -87 -145 -139
-101 -130 35 23 -77 -74 -140 -127
-83 -126 38 24 -66 -90 -128 -118
-71 -124 28 18 -72 -101 -122 -104
-84 -125 24 4 -71 -88 -121 -93
-69 -117 24 0 -65 -86 -112 -98
-54 -114 28 12 -72 -84 -114 -80
-52 -114 17 16 -67 -77 -110 -73
-63 -109 21 16 -41 -59 -103 -76
-57 -99 27 30 -45 -53 -87 -65
-49 -99 34 36 -48 -50 -87 -76
-54 -106 33 35 -47 -49 -99 -70
-49 -101 14 27 -35 -60 -91 -72
-35 -92 16 36 -26 -64 -97 -68
-35 -92 18 45 -19 -55 -96 -64
-38 -92 16 47 -24 -49 -88 -71
-37 -97 29 64 -19 -49 -89 -52
-30 -107 31 62 -13 -49 -85 -45
-32 -93 27 63 -15 -38 -70 -51
-32 -84 28 76 -14 -28 -62 -47
-23 -94 22 74 -11 -24 -69 -49
-23 -89 19 71 -16 -30 -73 -54
-23 -83 10 68 -8 -41 -78 -56
-16 -73 12 76 2 -36 -79 -41
-16 -72 12 84 17 -27 -71 -43
-26 -86 15 92 20 -21 -69 -52
-25 -84 26 96 20 -24 -66 -40
-24 -82 20 96 19 -23 -63 -35
-16 -82 28 100 20 -17 -59 -29
-11 -76 35 97 28 -12 -48 -29
-14 -71 29 97 30 -10 -42 -25
-7 -71 25 107 32 -6 -40 -20
-7 -69 25 108 42 0 -43 -26
-9 -65 27 113 51 4 -44 -21
-6 -64 23 124 68 11 -43 -21
0 -71 33 129 79 9 -42 -20
0 -66 41 128 70 3 -34 -23
-4 -63 29 133 66 9 -33 -17
-3 -76 33 140 75 15 -34 -9
7 -74 33 142 79 15 -28 -8
11 -65 19 142 81 18 -22 -7
7 -71 21 147 94 36 -18 -1
11 -70 16 148 105 39 -13 3
17 -59 17 149 112 38 -13 1
19 -54 19 159 122 52 -8 6
18 -51 23 168 125 58 -1 16
27 -48 36 168 135 57 2 11
27 -53 29 179 143 57 0 6
22 -56 31 188 155 62 5 7
28 -55 31 195 163 70 18 20
40 -45 29 211 169 85 22 28
48 -41 36 218 191 101 25 31
46 -39 34 226 202 106 39 39
54 -35 20 229 207 104 45 49
60 -31 20 233 208 125 49 50
62 -26 19 244 213 139 59 57
62 -24 7 255 235 136 67 55
64 -16 2 257 253 145 74 62
74 -10 0 261 270 159 92 72
85 -7 -10 275 286 177 108 88
95 2 -11 295 292 198 121 103
110 13 -9 300 309 216 131 113
110 11 -6 313 323 221 138 129
116 25 -23 309 328 236 156 138
125 35 -25 331 349 260 175 149
130 36 -26 339 358 276 191 168
134 55 -38 338 372 286 205 167
132 75 -43 349 384 303 221 177
136 75 -52 353 403 315 231 185
145 82 -60 356 413 324 244 203
155 99 -64 366 423 333 252 218
174 111 -60 365 438 350 258 223
175 114 -60 379 451 361 271 236
178 117 -73 384 448 370 291 242
201 138 -70 397 463 388 305 264
213 152 -77 398 470 405 323 292
215 167 -88 406 495 412 336 300
222 180 -92 413 490 418 348 305
222 181 -103 415 496 422 356 305
229 177 -117 416 499 423 364 312
237 174 -139 407 509 437 361 311
247 169 -140 401 518 454 368 315
235 175 -142 401 516 452 376 331
234 188 -130 405 507 463 388 333
246 187 -125 411 511 455 397 342
250 198 -132 402 504 453 401 349
241 201 -125 397 511 462 406 360
241 191 -121 387 501 460 406 356
228 203 -114 388 492 455 403 359
226 194 -109 384 485 452 404 352
221 184 -108 382 483 446 400 344
221 193 -98 368 471 445 398 342
212 185 -95 360 461 445 393 345
201 167 -99 354 436 432 389 327
194 177 -111 339 413 406 373 319
190 188 -95 331 409 396 352 313
184 186 -101 315 406 385 348 309
174 179 -83 305 390 374 330 292
166 175 -60 322 372 356 322 295
154 160 -54 313 362 345 304 279
146 146 -25 299 360 335 290 268
132 124 -25 289 330 309 271 246
108 109 -29 268 304 287 246 237
83 92 -26 245 274 264 225 212
73 89 -31 220 241 233 207 190
64 88 -8 210 238 218 187 175
55 75 -5 202 226 201 176 157
54 57 4 207 223 188 154 152
45 50 6 188 192 187 125 126
24 46 13 176 168 166 93 103
14 19 26 165 153 140 77 98
5 3 18 152 129 106 57 73
4 0 19 131 104 83 45 54
-3 -17 27 126 93 76 33 52
-10 -26 26 114 77 58 24 31
-13 -29 34 96 76 42 13 23
-13 -41 28 81 64 45 3 18
-14 -35 25 75 61 30 -9 9
-15 -40 25 62 43 26 -21 -3
-15 -43 22 62 38 6 -29 -8
-20 -48 30 55 25 -7 -38 -26
-32 -54 43 55 15 -13 -46 -28
-31 -65 57 58 1 -25 -54 -30
-43 -79 48 49 -3 -33 -65 -33
-46 -88 44 39 -14 -40 -74 -40
-39 -89 42 34 -9 -49 -74 -49
-49 -86 33 22 -19 -51 -76 -55
-51 -84 26 17 -27 -51 -75 -51
-48 -81 21 13 -30 -55 -79 -48
-47 -67 29 3 -22 -53 -80 -46
-44 -61 27 4 -22 -52 -77 -46
-52 -62 21 14 -19 -54 -78 -48
-45 -62 38 12 -27 -58 -85 -54
-43 -66 28 5 -36 -64 -94 -55
-48 -68 28 4 -31 -62 -102 -58
-46 -68 34 3 -36 -65 -99 -58
-47 -67 35 1 -44 -70 -91 -61
-49 -68 36 2 -49 -74 -96 -60
-49 -69 35 -4 -55 -74 -94 -59
-50 -65 33 -2 -52 -78 -93 -59
-47 -64 34 3 -49 -79 -102 -65
-50 -66 36 2 -45 -77 -105 -70
-53 -64 40 -4 -41 -80 -104 -72
-49 -67 37 -2 -41 -82 -105 -69
-53 -65 36 1 -46 -77 -103 -67
-50 -60 40 2 -45 -76 -101 -65
-48 -60 42 4 -46 -77 -96 -67
-49 -58 43 2 -46 -75 -95 -66
-49 -57 48 0 -48 -78 -95 -59
-51 -60 45 -3 -46 -80 -99 -59
-56 -60 46 -4 -46 -78 -102 -65
-57 -63 44 -4 -49 -81 -103 -73
-60 -64 41 -1 -46 -83 -104 -75
-60 -60 45 0 -42 -85 -104 -69
-58 -55 43 -2 -45 -85 -104 -74
-56 -48 45 -3 -46 -84 -107 -71
-57 -51 44 -2 -48 -81 -106 -66
-60 -48 40 -8 -51 -80 -109 -69
-54 -44 42 -6 -50 -81 -108 -65
-57 -46 36 -3 -54 -83 -108 -70
-59 -47 36 -5 -53 -84 -108 -75
-61 -52 40 -1 -52 -84 -104 -71
-57 -46 36 0 -54 -84 -103 -73
-53 -41 40 -2 -49 -84 -106 -67
-54 -43 38 0 -43 -79 -102 -65
-51 -33 37 -1 -48 -83 -100 -70
-49 -34 39 -3 -51 -78 -99 -63
-52 -38 36 -1 -48 -79 -97 -63
-48 -35 37 3 -47 -82 -99 -63
-56 -38 38 7 -45 -76 -93 -60
-58 -35 39 9 -41 -76 -94 -61
-51 -30 44 8 -41 -78 -94 -55
-46 -32 39 5 -42 -74 -91 -55
-43 -31 34 5 -46 -76 -92 -57
-47 -37 28 1 -52 -73 -95 -59
-47 -39 31 6 -51 -72 -92 -58
-41 -39 36 12 -47 -78 -93 -53
-48 -39 37 17 -47 -69 -90 -52
-47 -39 40 19 -39 -64 -88 -56
-44 -42 43 21 -40 -65 -91 -55
-40 -43 42 20 -45 -62 -86 -56
-39 -42 37 19 -49 -68 -83 -59
-39 -43 37 19 -47 -70 -87 -59
-36 -42 46 21 -43 -65 -85 -55
-36 -37 46 21 -39 -64 -83 -52
-38 -35 49 21 -36 -65 -83 -54
-37 -36 48 24 -37 -60 -83 -58
-35 -40 49 23 -35 -65 -82 -57
-34 -36 52 22 -36 -68 -80 -55
-28 -29 51 21 -38 -69 -80 -50
-31 -35 51 18 -38 -71 -80 -50
-30 -39 54 13 -34 -66 -76 -48
-33 -41 57 20 -38 -63 -73 -42
-38 -47 54 18 -38 -63 -74 -44
-38 -52 55 15 -36 -60 -76 -47
-35 -52 53 20 -36 -60 -71 -49
-39 -53 51 14 -45 -61 -74 -53
-44 -52 55 17 -46 -58 -77 -47
-41 -53 53 17 -43 -59 -77 -50
-39 -53 50 14 -43 -56 -81 -58
-40 -47 47 20 -38 -60 -82 -55
-41 -39 41 22 -35 -58 -82 -56
-34 -32 37 19 -40 -53 -84 -57
-30 -39 46 17 -41 -56 -86 -59
-31 -39 49 21 -41 -64 -79 -56
-32 -33 48 21 -40 -65 -81 -54
-32 -29 58 27 -32 -58 -73 -56
-24 -21 54 27 -29 -64 -68 -51
-29 -25 52 22 -27 -62 -75 -50
-33 -26 59 25 -31 -66 -76 -54
-34 -25 60 19 -36 -73 -78 -54
-35 -33 62 12 -33 -70 -88 -54
-37 -35 62 19 -43 -71 -87 -49
-28 -32 58 16 -43 -74 -82 -48
-33 -38 56 14 -41 -73 -85 -53
-35 -40 50 18 -47 -72 -83 -52
-36 -49 41 9 -44 -76 -87 -57
-43 -54 40 10 -48 -74 -92 -60
-40 -54 36 5 -58 -80 -95 -61
-39 -62 37 6 -55 -79 -98 -60
-38 -59 37 6 -54 -79 -95 -60
-35 -50 39 9 -51 -79 -96 -62
-30 -46 43 8 -41 -77 -95 -62
-27 -42 44 5 -41 -74 -96 -63
-29 -33 46 5 -44 -71 -98 -61
-29 -32 46 6 -45 -74 -102 -64
-24 -26 48 12 -44 -68 -100 -66
-22 -32 47 12 -44 -76 -101 -68
-27 -42 45 11 -47 -80 -103 -78
-26 -47 43 9 -52 -86 -108 -77
-30 -57 45 5 -55 -95 -107 -81
-35 -57 49 0 -54 -99 -105 -83
-43 -64 48 -2 -58 -102 -108 -79
-46 -63 42 -3 -51 -95 -107 -81
-49 -59 39 -9 -59 -91 -108 -76
-51 -57 41 -11 -58 -89 -109 -76
-52 -54 39 -5 -59 -94 -113 -75
-53 -53 37 -6 -62 -89 -112 -74
-51 -53 40 -10 -63 -91 -112 -77
-52 -52 35 -15 -66 -94 -116 -77
-51 -55 33 -16 -65 -93 -121 -77
-53 -55 30 -10 -70 -94 -120 -80
-49 -52 26 -15 -70 -96 -119 -86
-51 -51 27 -13 -70 -94 -123 -85
-46 -50 26 -16 -68 -94 -123 -84
-40 -47 27 -19 -67 -99 -126 -83
-38 -40 29 -14 -65 -96 -122 -79
-36 -36 30 -13 -65 -96 -121 -84
-35 -36 33 -11 -61 -92 -122 -83
-36 -41 32 -10 -62 -95 -122 -84
-37 -46 35 -11 -67 -97 -124 -88
-38 -56 40 -10 -67 -101 -123 -87
-44 -61 42 -8 -69 -106 -124 -92
-42 -60 39 -8 -68 -106 -122 -90
-48 -68 36 -12 -70 -104 -123 -92
-48 -71 36 -13 -69 -102 -122 -90
-52 -72 32 -20 -76 -105 -122 -88
-57 -74 34 -20 -73 -99 -124 -92
-56 -71 35 -18 -76 -103 -123 -87
-57 -69 33 -20 -73 -98 -123 -87
-54 -64 37 -17 -68 -94 -124 -85
-51 -61 36 -15 -69 -97 -124 -88
-53 -59 34 -15 -67 -95 -129 -93
-53 -59 34 -16 -73 -100 -133 -95
-50 -58 34 -18 -73 -103 -133 -97
-48 -56 33 -17 -73 -106 -135 -97
-46 -56 35 -14 -73 -105 -133 -96
-45 -56 36 -14 -70 -107 -134 -94
-47 -57 37 -15 -70 -107 -132 -96
-47 -57 35 -14 -70 -108 -134 -98
-46 -61 34 -12 -68 -108 -135 -98
-49 -63 35 -13 -68 -108 -135 -100
-51 -63 36 -15 -74 -109 -137 -98
-50 -67 33 -16 -76 -110 -137 -97
-53 -68 29 -16 -75 -108 -135 -98
-56 -65 30 -11 -72 -108 -132 -100
-55 -67 32 -12 -71 -111 -133 -102
-54 -66 31 -11 -71 -110 -134 -100
-54 -64 27 -11 -75 -110 -139 -100
-53 -64 31 -11 -71 -108 -141 -100
-52 -62 32 -10 -69 -106 -139 -99
-53 -60 28 -9 -71 -107 -143 -102
-49 -61 31 -7 -71 -105 -144 -101
-48 -64 33 -6 -75 -108 -145 -99
-54 -65 35 -8 -72 -111 -144 -104
-55 -66 37 -9 -72 -115 -144 -106
-55 -68 41 -8 -77 -115 -143 -107
-55 -70 39 -9 -76 -115 -144 -105
-53 -70 37 -12 -77 -112 -146 -105
-50 -71 34 -10 -73 -112 -143 -107
-50 -71 31 -5 -76 -111 -144 -106
-49 -68 28 -4 -70 -110 -142 -105
-44 -72 33 -2 -66 -106 -144 -106
-43 -71 37 4 -71 -112 -148 -103
-50 -68 40 5 -76 -115 -149 -110
-54 -67 31 0 -73 -116 -151 -103
-50 -64 26 -5 -71 -112 -148 -108
-47 -49 18 2 -71 -107 -143 -113
-35 -53 19 4 -60 -110 -144 -102
-31 -57 14 7 -58 -105 -141 -100
-44 -63 21 5 -74 -101 -145 -101
-48 -69 26 3 -69 -100 -147 -102
-51 -65 35 22 -61 -98 -137 -100
-49 -37 31 33 -57 -86 -119 -91
-48 -24 37 37 -33 -79 -109 -97
-45 -13 49 40 -23 -71 -101 -80
-49 -12 60 40 -39 -69 -101 -76
-51 -19 70 41 -34 -75 -110 -84
-62 -25 86 39 -38 -76 -107 -87
-56 -14 79 46 -33 -66 -106 -80
-55 -1 84 58 -18 -51 -109 -72
-40 12 93 59 -14 -53 -98 -61
-40 14 90 52 -13 -63 -92 -64
-31 10 95 52 -24 -77 -98 -68
-21 22 91 56 -28 -84 -83 -59
-9 34 86 58 -13 -73 -91 -47
-9 49 70 71 -4 -56 -88 -47
5 59 75 71 8 -40 -75 -36
14 72 77 87 26 -28 -54 -34
14 73 80 92 33 -13 -55 -24
22 62 72 80 32 -5 -54 -32
24 61 66 68 11 -21 -63 -31
20 57 50 49 -16 -31 -69 -32
10 55 48 36 -28 -40 -71 -35
17 57 38 33 -14 -47 -71 -32
6 46 28 21 -28 -48 -77 -40
4 43 18 9 -34 -61 -85 -41
-1 38 17 -3 -40 -70 -82 -49
7 47 0 -6 -51 -71 -88 -46
-2 45 -4 -8 -51 -64 -82 -48
6 50 -14 -11 -51 -59 -85 -41
6 59 -22 -6 -57 -50 -74 -38
13 64 -23 -10 -52 -51 -74 -33
10 62 -21 -15 -55 -49 -64 -25
10 68 -13 -22 -52 -49 -56 -17
-1 49 -14 -24 -57 -51 -62 -29
-2 47 -7 -21 -59 -54 -67 -23
-6 36 -5 -19 -53 -66 -66 -39
-9 33 0 -10 -47 -65 -76 -45
0 22 6 -7 -46 -69 -77 -45
-9 15 12 -13 -43 -68 -80 -52
-10 6 14 -17 -54 -73 -88 -56
-17 -8 9 -16 -58 -72 -98 -52
-33 -17 12 -16 -62 -73 -96 -63
-38 -24 18 -22 -70 -83 -96 -62
-49 -41 16 -21 -69 -85 -98 -68
-56 -49 21 -24 -75 -97 -108 -76
-59 -62 32 -27 -74 -105 -118 -82
-68 -72 31 -29 -79 -109 -123 -89
-66 -74 29 -31 -83 -114 -134 -104
-67 -86 23 -32 -88 -110 -145 -105
-68 -84 17 -32 -91 -109 -146 -110
-67 -86 16 -35 -88 -112 -148 -107
-70 -89 20 -34 -91 -109 -145 -108
-67 -88 20 -28 -95 -118 -141 -109
-72 -86 23 -27 -93 -115 -144 -107
-70 -94 28 -33 -89 -110 -141 -111
-65 -95 24 -34 -87 -121 -142 -113
-65 -95 30 -34 -87 -122 -146 -109
-60 -94 33 -35 -86 -126 -151 -110
-73 -102 34 -37 -86 -129 -154 -116
-75 -100 29 -43 -91 -133 -154 -122
-67 -103 35 -37 -90 -134 -157 -116
-76 -110 42 -34 -86 -134 -156 -113
-87 -108 39 -36 -89 -136 -145 -112
-83 -100 28 -31 -79 -129 -138 -116
-78 -103 29 -23 -79 -125 -150 -124
-82 -103 39 -27 -78 -121 -154 -106
-87 -97 41 -41 -79 -135 -152 -101
-95 -83 31 -39 -92 -142 -160 -110
-87 -89 23 -39 -95 -129 -157 -113
-99 -90 22 -39 -86 -118 -148 -119
-95 -112 29 -29 -63 -128 -164 -118
-104 -113 25 -9 -72 -142 -176 -116
-109 -127 57 10 -51 -158 -219 -136
-123 -117 93 88 -35 -162 -214 -170
-126 -161 129 129 14 -128 -243 -202
-131 -177 153 244 51 -113 -238 -220
-149 -184 264 304 113 -106 -231 -247
-141 -177 297 431 198 -75 -214 -241
-56 -130 331 512 300 1 -160 -187
-11 -58 325 560 385 69 -87 -132
7 -9 295 609 457 218 20 -65
109 72 275 617 551 328 118 -1
162 165 237 577 557 472 301 145
271 268 183 486 576 623 463 279
339 402 93 356 522 745 676 409
450 527 -1 141 493 895 879 627
542 627 -153 -22 395 1040 1093 830
613 812 -282 -277 336 1211 1317 1010
702 918 -446 -507 292 1383 1519 1217
791 985 -598 -781 229 1527 1702 1374
793 1019 -710 -991 79 1589 1809 1498
753 1042 -759 -1160 0 1577 1821 1510
730 944 -771 -1242 -132 1441 1684 1446
627 740 -739 -1264 -256 1250 1460 1293
522 543 -660 -1266 -359 941 1139 1106
311 335 -610 -1250 -587 549 766 807
160 195 -572 -1263 -813 157 395 564
36 54 -530 -1322 -1014 -191 87 342
-52 83 -500 -1309 -1146 -433 -127 170
-129 4 -459 -1273 -1197 -529 -264 52
-153 -46 -424 -1166 -1183 -623 -316 -27
-192 -105 -372 -1071 -1169 -700 -413 -108
-215 -134 -324 -983 -1138 -750 -495 -240
-228 -158 -308 -873 -1047 -742 -535 -308
-236 -183 -273 -782 -991 -676 -532 -339
-192 -162 -237 -676 -877 -602 -496 -312
-196 -160 -183 -590 -761 -512 -433 -303
-181 -140 -147 -460 -669 -449 -388 -270
-165 -160 -105 -395 -523 -367 -331 -257
-127 -133 -71 -279 -421 -337 -272 -231
-101 -126 -54 -208 -327 -264 -261 -196
-76 -115 -38 -156 -276 -220 -207 -141
-67 -83 -37 -140 -207 -172 -184 -137
-42 -65 -8 -100 -168 -145 -145 -98
-22 -58 0 -94 -138 -150 -116 -101
-23 -80 -4 -91 -140 -155 -119 -77
-30 -79 -19 -87 -146 -160 -119 -81
-53 -98 9 -73 -130 -131 -119 -92
-70 -87 12 -37 -111 -130 -124 -95
-90 -96 20 -32 -101 -104 -128 -92
-74 -88 32 -14 -84 -95 -122 -84
-69 -89 30 -24 -85 -98 -124 -95
-83 -103 30 -21 -88 -102 -130 -99
-79 -112 30 -20 -103 -103 -130 -116
-82 -110 31 -14 -111 -110 -142 -113
-88 -114 33 -21 -107 -91 -149 -111
-90 -109 21 -8 -73 -76 -146 -111
-82 -101 18 -1 -73 -76 -135 -109
-74 -101 30 0 -76 -79 -120 -117
-73 -95 37 3 -68 -89 -124 -110
-63 -100 37 6 -63 -101 -127 -102
-48 -90 28 5 -65 -107 -131 -97
-58 -95 31 4 -55 -94 -126 -91
-60 -90 30 4 -49 -82 -120 -99
-45 -89 39 19 -46 -75 -115 -81
-38 -93 35 19 -42 -68 -110 -71
-43 -91 28 10 -40 -64 -100 -77
-53 -88 42 23 -40 -52 -90 -77
-46 -86 48 38 -38 -51 -91 -76
-47 -77 44 36 -34 -53 -96 -71
-50 -75 38 27 -25 -58 -97 -76
-42 -75 38 36 -15 -62 -95 -70
-38 -65 41 50 -6 -52 -87 -70
-44 -67 50 61 2 -41 -84 -76
-41 -78 57 71 -4 -40 -92 -62
-35 -77 42 65 -11 -37 -89 -60
-33 -72 38 62 -8 -32 -83 -58
-27 -64 39 67 -3 -33 -81 -52
-29 -63 23 56 -2 -34 -81 -62
-37 -72 22 53 -5 -29 -85 -67
-38 -65 21 57 1 -41 -81 -65
-32 -50 32 66 21 -30 -78 -53
-24 -45 42 86 43 -10 -65 -53
-23 -45 47 94 50 -4 -55 -45
-17 -46 64 91 40 -1 -52 -29
-13 -53 48 85 30 -11 -54 -34
-19 -59 46 87 35 -3 -56 -29
-16 -54 44 88 39 0 -45 -31
-10 -49 36 87 36 1 -46 -38
-6 -57 43 93 46 9 -45 -29
-10 -54 29 94 59 8 -41 -38
-14 -47 29 105 65 12 -44 -35
-7 -49 29 116 73 23 -42 -33
-3 -40 27 119 77 26 -45 -34
0 -38 28 121 82 13 -42 -24
-1 -49 20 124 90 12 -37 -20
-3 -43 33 134 99 19 -28 -15
-2 -40 38 142 106 36 -15 -10
8 -40 41 149 111 52 -11 -4
20 -27 36 157 119 60 0 3
23 -29 25 151 126 70 0 4
33 -24 19 157 128 64 -2 13
41 -20 11 157 138 71 3 10
39 -25 10 165 141 78 -2 9
44 -19 7 177 158 71 1 5
38 -15 14 191 177 79 6 10
42 -12 33 212 197 92 25 18
52 -13 27 222 207 106 47 33
61 -8 30 232 212 128 61 42
75 -3 33 240 234 145 70 50
74 -8 28 242 237 153 71 67
80 4 13 237 239 151 80 67
81 4 8 249 244 169 82 72
85 4 12 257 255 186 98 90
85 20 7 265 283 189 119 81
81 31 -1 283 302 206 129 96
87 32 -3 292 322 219 147 105
96 38 -8 296 336 235 161 116
109 52 -14 319 341 252 172 140
119 64 -14 318 363 279 179 142
117 71 -12 329 373 292 195 166
129 87 -27 323 374 308 219 177
144 107 -25 341 392 332 238 192
147 118 -29 352 397 350 262 220
151 126 -41 359 425 357 267 215
147 138 -44 360 429 353 272 218
149 147 -52 361 439 356 285 228
159 157 -66 370 437 363 294 243
167 162 -83 378 451 381 298 251
176 162 -79 376 464 402 304 253
181 162 -69 386 471 396 315 275
179 165 -80 384 463 410 336 282
190 175 -80 393 475 421 343 301
199 187 -84 403 478 435 363 309
201 201 -105 401 492 446 361 314
214 208 -104 397 479 446 365 327
215 210 -115 391 474 444 373 325
222 196 -114 396 473 439 376 330
227 188 -113 399 477 437 377 328
238 198 -117 390 475 451 385 332
226 181 -115 385 490 462 390 343
221 167 -108 392 482 468 403 335
232 185 -103 400 474 459 414 344
230 183 -95 390 469 456 409 346
225 185 -102 370 458 456 405 353
229 190 -93 359 448 452 406 343
216 197 -81 371 443 448 403 348
211 192 -66 363 445 442 393 338
201 182 -52 357 450 434 375 319
191 166 -50 344 427 418 362 302
165 159 -49 333 405 403 353 292
138 145 -41 325 384 380 337 277
138 148 -43 307 350 352 318 270
134 152 -28 289 334 344 291 258
120 134 -20 277 321 314 293 252
114 111 -11 272 305 298 272 233
102 99 7 273 282 295 249 228
83 85 7 262 274 286 235 201
76 75 9 241 262 272 208 194
69 62 15 236 238 244 185 176
58 68 3 218 218 223 175 157
48 65 2 205 197 205 157 145
47 50 0 185 168 179 143 123
51 47 3 170 163 156 123 114
46 38 6 165 167 145 116 108
32 18 19 171 175 140 100 98
22 10 24 169 150 142 82 87
10 7 22 156 132 124 65 67
8 -9 42 140 108 106 59 55
5 -12 45 139 86 79 49 52
3 -23 37 121 75 67 31 40
-5 -38 29 112 64 62 19 31
-17 -48 16 92 42 48 2 15
-23 -55 23 85 47 39 -8 0
-23 -60 16 85 51 35 -14 -2
-23 -61 12 80 52 23 -21 -1
-21 -55 11 68 35 13 -28 -14
-20 -48 16 59 31 1 -34 -13
-24 -54 26 60 22 -3 -34 -15
-32 -54 19 63 13 -10 -37 -23
-29 -64 35 52 8 -12 -48 -27
-32 -77 26 44 1 -15 -57 -24
-44 -75 19 38 -7 -21 -65 -35
-46 -76 30 37 0 -28 -62 -38
-42 -78 26 33 -11 -30 -59 -45
-44 -76 21 28 -23 -38 -66 -46
-44 -80 23 18 -29 -45 -74 -47
-36 -73 17 13 -31 -57 -84 -46
-40 -70 11 13 -28 -62 -91 -56
-51 -76 15 13 -31 -63 -92 -64
-52 -74 24 16 -36 -72 -93 -63
-57 -75 20 17 -36 -66 -97 -58
-54 -77 22 16 -31 -61 -99 -61
-45 -69 31 14 -25 -68 -93 -58
-52 -69 37 10 -39 -69 -85 -60
-49 -66 35 10 -47 -72 -89 -54
-49 -68 37 8 -51 -71 -91 -57
-57 -66 35 4 -51 -70 -96 -58
-59 -64 33 3 -42 -73 -102 -61
-64 -66 35 3 -37 -74 -102 -64
-60 -57 41 1 -39 -76 -94 -66
-54 -57 45 2 -39 -77 -97 -62
-58 -58 41 4 -39 -73 -98 -64
-56 -49 40 1 -38 -80 -98 -61
-51 -45 42 1 -42 -74 -96 -58
-55 -39 38 4 -44 -74 -96 -63
-53 -36 35 5 -43 -77 -99 -61
-50 -37 35 9 -42 -75 -100 -60
-49 -39 36 10 -41 -78 -99 -70
-55 -48 41 8 -43 -77 -105 -68
-54 -49 39 8 -46 -82 -103 -67
-55 -43 41 12 -42 -86 -105 -69
-56 -43 39 10 -41 -79 -106 -67
-54 -40 44 11 -45 -77 -102 -65
-57 -40 47 8 -47 -76 -96 -64
-53 -44 46 6 -46 -77 -94 -60
-48 -39 46 11 -47 -78 -91 -58
-53 -41 50 9 -44 -76 -87 -57
-48 -43 51 13 -39 -73 -90 -48
-41 -41 45 19 -36 -73 -87 -56
-42 -43 43 25 -38 -67 -92 -64
-41 -50 44 21 -43 -69 -94 -52
-43 -50 41 12 -39 -73 -89 -55
-43 -46 37 17 -40 -76 -89 -60
-43 -51 25 24 -44 -78 -95 -63
-54 -49 30 27 -40 -71 -92 -64
-46 -49 37 22 -39 -71 -93 -61
-39 -52 36 27 -43 -67 -95 -58
-42 -50 35 27 -44 -67 -88 -58
-46 -50 35 26 -43 -68 -87 -56
-38 -51 38 30 -37 -67 -90 -51
-34 -44 41 30 -34 -71 -88 -56
-36 -42 44 36 -25 -70 -88 -55
-38 -43 47 38 -26 -70 -85 -54
-36 -31 48 30 -28 -60 -85 -63
-29 -25 47 28 -32 -55 -84 -52
-28 -34 36 23 -28 -57 -81 -46
-31 -39 34 21 -24 -64 -80 -50
-30 -37 40 23 -29 -74 -81 -50
-26 -36 41 22 -27 -72 -79 -49
-36 -46 42 21 -26 -66 -79 -51
-39 -56 44 20 -25 -66 -74 -50
-36 -50 49 20 -31 -63 -72 -48
-36 -43 53 25 -30 -57 -76 -42
-31 -54 58 29 -29 -61 -75 -42
-35 -60 48 30 -35 -65 -73 -51
-37 -62 45 22 -37 -66 -84 -55
-34 -63 49 22 -37 -63 -91 -57
-38 -52 37 19 -33 -63 -89 -62
-43 -52 39 21 -30 -58 -89 -60
-32 -45 37 27 -31 -60 -87 -56
-22 -40 49 32 -23 -66 -90 -60
-24 -45 55 37 -28 -65 -84 -64
-21 -44 47 31 -33 -66 -87 -61
-23 -44 49 30 -27 -61 -82 -58
-16 -40 52 23 -20 -62 -81 -58
-22 -33 55 29 -16 -59 -72 -48
-28 -39 50 29 -21 -55 -62 -42
-24 -46 62 27 -30 -57 -65 -42
-17 -49 70 30 -24 -62 -70 -51
-27 -58 60 37 -32 -66 -79 -57
-29 -64 47 33 -38 -71 -79 -56
-29 -68 44 24 -43 -71 -90 -63
-22 -62 40 25 -45 -64 -94 -65
-30 -61 18 24 -42 -72 -98 -65
-41 -57 23 27 -42 -71 -102 -63
-29 -55 28 22 -52 -79 -100 -70
-32 -62 30 22 -55 -72 -112 -70
-35 -61 36 25 -48 -76 -106 -67
-35 -52 28 22 -47 -84 -104 -68
-28 -49 42 15 -41 -78 -107 -66
-19 -41 46 10 -47 -80 -105 -71
-21 -33 46 13 -50 -74 -97 -62
-23 -40 41 13 -52 -77 -100 -59
-12 -30 38 10 -56 -68 -102 -69
-8 -25 41 15 -48 -74 -99 -72
-18 -28 36 21 -44 -77 -99 -79
-8 -25 36 20 -38 -82 -103 -71
-8 -27 39 19 -37 -85 -106 -78
-14 -34 47 13 -39 -86 -115 -83
-32 -44 47 15 -55 -87 -109 -82
-43 -53 34 16 -52 -86 -104 -83
-36 -54 38 7 -59 -85 -107 -75
-33 -51 37 6 -56 -78 -103 -72
-46 -57 34 14 -49 -90 -106 -71
-42 -56 26 9 -57 -91 -100 -71
-33 -52 23 0 -70 -86 -104 -72
-37 -50 25 -3 -70 -81 -111 -76
-35 -44 5 -3 -66 -71 -113 -69
-36 -41 -4 8 -64 -68 -114 -73
-24 -27 0 14 -60 -77 -115 -83
-20 -17 3 11 -61 -75 -119 -76
-24 -22 6 11 -45 -78 -116 -81
-28 -27 6 12 -57 -90 -122 -86
-23 -24 8 6 -67 -86 -121 -82
-30 -30 10 0 -63 -84 -121 -90
-33 -36 13 4 -63 -82 -121 -81
-24 -35 7 6 -63 -90 -109 -72
-21 -31 19 3 -70 -98 -106 -75
-18 -26 34 0 -70 -103 -106 -70
-30 -38 29 -1 -62 -95 -113 -76
-38 -48 15 0 -67 -90 -117 -81
-39 -44 9 -7 -80 -85 -121 -80
-39 -45 10 -1 -70 -86 -118 -83
-39 -47 7 6 -64 -97 -121 -88
-38 -53 10 10 -67 -90 -121 -83
-39 -60 10 3 -77 -97 -121 -85
-43 -65 14 -5 -75 -99 -134 -92
-45 -65 14 0 -74 -96 -133 -89
-43 -58 4 0 -79 -97 -125 -92
-43 -48 8 -8 -76 -92 -122 -88
-39 -41 15 -2 -72 -87 -120 -81
-32 -37 16 2 -65 -92 -118 -83
-41 -41 19 2 -64 -97 -121 -85
-38 -43 30 12 -63 -90 -118 -81
-31 -44 21 11 -61 -92 -120 -89
-33 -44 17 10 -58 -88 -130 -94
-30 -37 10 11 -66 -99 -130 -90
-33 -43 5 3 -69 -107 -129 -94
-38 -45 20 5 -65 -102 -129 -96
-38 -48 17 12 -73 -110 -127 -97
-43 -52 16 15 -71 -103 -135 -95
-50 -55 16 15 -65 -97 -136 -97
-47 -48 18 12 -61 -98 -130 -95
-47 -45 24 7 -61 -97 -126 -86
-52 -50 24 7 -69 -96 -126 -89
-52 -58 28 7 -77 -107 -130 -88
-52 -62 29 2 -77 -106 -127 -88
-52 -60 29 2 -75 -102 -129 -90
-46 -55 30 2 -73 -104 -124 -86
-44 -47 23 -3 -70 -95 -125 -86
-40 -43 25 0 -74 -96 -132 -85
-38 -45 18 -2 -72 -98 -131 -89
-41 -42 19 1 -68 -100 -131 -93
-37 -39 28 15 -67 -104 -131 -94
-40 -48 26 14 -66 -102 -134 -91
-43 -47 32 10 -62 -100 -135 -96
-39 -47 30 12 -65 -101 -137 -100
-38 -57 27 14 -69 -104 -138 -100
-36 -56 24 12 -64 -107 -133 -98
-31 -60 28 12 -70 -107 -136 -98
-28 -62 37 16 -76 -112 -140 -95
-41 -63 37 14 -78 -112 -139 -101
-46 -57 29 10 -73 -114 -141 -97
-43 -50 26 5 -72 -107 -141 -107
-45 -44 21 11 -74 -102 -141 -104
-33 -44 23 11 -63 -113 -140 -98
-27 -41 25 17 -57 -107 -134 -101
-36 -50 27 21 -74 -104 -140 -102
-33 -58 30 11 -68 -100 -144 -97
-33 -58 42 18 -62 -92 -131 -87
-26 -34 30 25 -67 -90 -117 -81
-31 -23 31 27 -49 -85 -109 -86
-34 -11 41 30 -39 -79 -96 -71
-32 -10 53 28 -49 -83 -96 -73
-35 -21 60 32 -45 -84 -108 -79
-47 -29 70 32 -45 -88 -109 -85
-39 -23 70 40 -33 -81 -111 -86
-40 -6 74 53 -23 -63 -110 -78
-21 13 80 53 -16 -55 -99 -64
-23 18 81 49 -15 -55 -87 -56
-17 20 83 50 -22 -61 -86 -54
-8 37 88 60 -24 -70 -73 -50
0 48 90 61 -12 -66 -80 -42
-4 56 78 71 -8 -54 -75 -47
17 61 76 70 5 -42 -70 -38
25 71 71 82 16 -27 -57 -41
26 74 73 83 19 -17 -59 -28
34 66 58 73 25 -11 -54 -29
35 74 51 61 7 -19 -58 -29
32 72 36 36 -18 -29 -61 -26
17 74 28 21 -33 -34 -63 -28
30 80 17 18 -21 -42 -64 -23
18 69 14 8 -31 -44 -65 -29
21 75 5 0 -37 -58 -70 -29
13 70 5 -11 -38 -61 -72 -37
22 75 -4 -11 -45 -57 -78 -32
19 75 -13 -14 -51 -58 -75 -34
23 78 -19 -17 -47 -54 -79 -32
20 83 -26 -13 -59 -49 -68 -32
18 88 -32 -21 -59 -50 -69 -28
9 79 -27 -24 -59 -45 -61 -25
14 84 -17 -29 -63 -52 -52 -17
5 64 -23 -29 -61 -50 -54 -24
0 62 -20 -27 -63 -50 -61 -21
2 57 -13 -28 -54 -62 -60 -35
0 56 -6 -18 -46 -59 -68 -36
4 46 -1 -15 -50 -63 -71 -39
-5 35 10 -21 -47 -60 -74 -44
-7 27 6 -22 -57 -66 -82 -48
-13 17 2 -19 -61 -67 -92 -48
-25 9 15 -21 -63 -74 -93 -58
-32 0 21 -24 -68 -89 -93 -62
-42 -16 12 -24 -74 -83 -103 -71
-45 -26 6 -35 -87 -86 -114 -79
-46 -38 13 -39 -87 -96 -120 -84
-52 -44 7 -42 -87 -103 -122 -86
-52 -48 6 -44 -89 -102 -127 -97
-55 -55 4 -45 -95 -103 -134 -97
-58 -47 3 -47 -99 -111 -140 -101
-52 -54 10 -49 -96 -114 -144 -104
-55 -56 10 -46 -95 -120 -137 -105
-53 -53 12 -45 -99 -118 -133 -106
-57 -53 10 -44 -94 -112 -143 -104
-61 -62 11 -49 -90 -110 -147 -110
-59 -62 8 -57 -97 -124 -150 -114
-60 -60 15 -57 -102 -136 -155 -107
-69 -63 17 -58 -109 -137 -161 -112
-79 -69 4 -68 -119 -141 -166 -124
-83 -67 0 -67 -116 -140 -157 -132
-70 -71 2 -61 -109 -144 -162 -124
-70 -71 8 -54 -97 -139 -155 -108
-78 -65 17 -58 -97 -134 -142 -105
-70 -51 6 -49 -98 -138 -142 -107
-61 -67 9 -43 -96 -127 -157 -118
-77 -71 21 -43 -94 -126 -161 -110
-74 -65 44 -52 -86 -144 -159 -105
-86 -65 29 -47 -98 -154 -174 -112
-84 -69 33 -38 -98 -148 -179 -124
-95 -75 47 -36 -92 -149 -173 -134
-103 -119 33 -19 -74 -147 -195 -147
-107 -112 40 20 -80 -145 -205 -160
-125 -117 97 75 -36 -170 -264 -182
-127 -134 135 205 11 -164 -251 -209
-138 -169 173 284 45 -132 -247 -232
-122 -158 204 389 107 -97 -222 -245
-72 -150 285 424 200 -89 -210 -249
-22 -125 281 519 274 -12 -179 -217
63 -77 280 562 358 134 -74 -115
130 13 256 553 428 202 68 -4
119 109 236 501 479 350 215 107
231 218 182 438 540 504 315 167
302 305 118 350 498 638 524 298
365 422 57 193 488 761 727 497
440 589 -19 43 446 921 943 658
551 685 -114 -127 446 1112 1102 848
618 763 -265 -285 390 1259 1307 1057
668 966 -411 -557 350 1390 1526 1193
742 1098 -587 -788 237 1533 1689 1335
816 1118 -702 -1035 135 1621 1784 1462
770 1059 -786 -1201 -38 1557 1772 1501
643 980 -768 -1309 -166 1409 1645 1394
607 809 -744 -1324 -328 1149 1392 1218
491 602 -703 -1273 -458 850 1086 1006
340 403 -624 -1216 -545 536 756 837
151 210 -551 -1196 -755 173 396 543
22 100 -482 -1188 -996 -196 76 303
-112 -19 -427 -1220 -1166 -471 -158 122
-142 -21 -391 -1187 -1197 -634 -314 14
-203 -84 -362 -1112 -1211 -678 -403 -87
-221 -106 -339 -1010 -1182 -712 -447 -140
-215 -132 -294 -914 -1103 -714 -465 -177
-209 -133 -262 -822 -1041 -691 -483 -269
-201 -140 -238 -718 -943 -651 -492 -299
-219 -154 -189 -633 -856 -588 -478 -307
-190 -149 -155 -535 -742 -522 -453 -284
-185 -150 -108 -453 -630 -441 -404 -295
-172 -139 -77 -334 -554 -390 -367 -277
-165 -159 -47 -267 -433 -323 -327 -263
-135 -155 -12 -185 -355 -302 -272 -226
-120 -148 -1 -153 -297 -244 -261 -216
-91 -125 11 -109 -244 -191 -202 -167
-89 -109 7 -96 -182 -135 -173 -152
-73 -96 19 -79 -169 -131 -152 -130
-52 -80 23 -84 -159 -154 -140 -134
-67 -110 21 -78 -163 -150 -147 -121
-70 -109 3 -55 -160 -163 -151 -124
-80 -121 30 -49 -142 -139 -156 -130
-90 -109 31 -23 -126 -141 -160 -138
-101 -110 27 -25 -128 -131 -164 -132
-92 -108 33 -22 -102 -123 -158 -118
-83 -106 25 -26 -102 -126 -155 -123
-87 -109 26 -24 -109 -136 -160 -120
-86 -118 32 -26 -115 -131 -155 -132
-88 -117 44 -8 -109 -134 -153 -121
-83 -119 35 -14 -109 -118 -153 -109
-80 -111 23 -15 -84 -95 -156 -113
-75 -104 22 -9 -86 -102 -150 -111
-70 -107 21 -12 -82 -112 -141 -120
-66 -104 26 -5 -75 -115 -139 -115
-63 -104 31 2 -74 -120 -136 -113
-56 -97 33 4 -72 -115 -141 -101
-63 -104 37 12 -54 -101 -137 -95
-65 -102 39 13 -50 -100 -132 -103
-53 -99 48 17 -54 -96 -123 -88
-52 -103 44 21 -53 -89 -123 -83
-51 -104 44 23 -52 -91 -122 -84
-48 -98 46 25 -57 -85 -111 -82
-48 -95 41 31 -43 -82 -111 -86
-51 -89 49 34 -35 -77 -114 -79
-44 -78 39 31 -28 -76 -109 -78
-41 -77 34 39 -22 -76 -114 -79
-37 -77 34 49 -20 -67 -111 -79
-39 -77 42 57 -11 -62 -103 -82
-36 -78 58 72 -9 -67 -105 -74
-34 -83 48 68 -12 -66 -109 -65
-39 -86 45 57 -3 -64 -105 -68
-39 -80 51 65 -4 -64 -100 -74
-38 -78 47 68 -7 -60 -98 -72
-43 -84 41 68 -4 -51 -93 -68
-39 -76 34 65 -1 -54 -89 -64
-25 -62 44 69 16 -47 -86 -55
-24 -58 47 83 34 -36 -78 -53
-29 -63 47 94 37 -31 -77 -54
-24 -70 61 94 34 -30 -83 -52
-19 -76 48 88 29 -37 -87 -57
-26 -75 42 94 35 -35 -87 -58
-24 -69 51 101 41 -30 -72 -49
-19 -64 47 99 43 -29 -62 -50
-17 -66 50 103 49 -18 -65 -42
-12 -70 48 102 55 -19 -62 -37
-12 -63 43 108 65 -19 -59 -36
-14 -65 46 117 77 -2 -58 -34
-12 -66 45 122 84 5 -52 -35
-6 -58 47 122 90 1 -50 -29
-7 -56 46 130 97 3 -47 -23
-4 -53 51 140 110 7 -40 -22
0 -52 50 145 117 15 -32 -15
13 -47 46 152 117 32 -26 -12
22 -36 45 164 130 45 -22 -10
21 -42 38 165 143 48 -23 -9
24 -41 32 172 147 50 -20 0
33 -35 35 177 158 65 -8 3
32 -40 42 188 165 79 -3 8
36 -36 40 197 174 79 8 9
35 -31 35 202 191 81 17 10
43 -29 44 214 211 96 33 24
54 -22 40 223 225 110 51 34
59 -15 42 240 234 130 59 43
68 -11 41 246 258 150 71 51
64 -12 46 258 271 160 78 65
64 -3 37 256 281 167 90 70
63 5 34 275 291 193 102 74
64 10 37 287 298 213 117 92
66 16 32 290 310 209 128 91
57 31 25 301 325 222 140 95
59 35 24 310 342 238 159 110
73 35 14 319 358 262 173 127
84 46 13 334 367 279 179 144
91 59 17 333 381 302 183 139
87 64 14 352 395 311 199 158
99 85 2 354 399 324 226 173
130 108 6 370 421 348 247 187
135 119 3 381 432 373 264 215
137 140 -12 391 465 382 274 220
139 153 -14 390 464 380 280 228
138 151 -20 386 471 390 292 236
130 152 -33 390 473 394 305 233
139 152 -43 395 483 405 306 239
155 152 -43 390 499 425 316 255
153 159 -44 385 505 424 324 266
147 171 -44 388 490 435 348 267
159 173 -50 403 494 440 354 292
171 185 -53 398 493 446 356 302
175 195 -65 385 501 450 366 305
176 185 -61 389 500 456 371 307
166 201 -49 413 503 458 377 311
174 200 -40 418 504 465 391 319
176 188 -39 415 505 474 383 314
184 190 -37 408 493 477 386 311
176 173 -50 400 497 481 393 317
181 152 -55 398 486 474 392 311
189 168 -70 384 466 455 390 314
188 177 -69 371 454 447 390 304
176 168 -70 377 462 437 379 315
177 170 -45 367 457 434 372 313
175 179 -29 361 436 427 368 303
161 159 -15 360 421 421 345 291
154 141 -7 355 419 411 332 274
152 130 -7 341 391 387 321 252
131 116 -4 323 369 375 301 250
112 103 6 301 343 353 284 238
104 96 8 282 311 313 271 228
88 74 20 264 289 290 247 205
68 63 19 240 267 276 238 183
60 41 29 233 257 264 218 167
64 30 43 230 230 248 189 161
62 22 44 213 222 214 163 139
45 16 41 194 215 190 149 126
42 13 40 188 197 167 136 112
28 19 34 177 176 161 122 105
4 11 21 164 162 153 100 94
4 13 24 154 134 137 92 79
6 4 33 148 137 120 80 70
7 -13 35 142 132 109 77 50
3 -24 32 141 124 98 57 41
-12 -46 31 128 102 86 34 30
-23 -39 31 109 79 59 7 16
-22 -42 33 95 66 40 -10 9
-40 -45 33 96 49 24 -20 -3
-45 -52 31 76 38 19 -29 -13
-53 -71 27 63 25 18 -40 -17
-60 -74 27 55 3 8 -44 -29
-58 -67 32 52 4 3 -41 -29
-53 -85 33 51 8 -1 -46 -35
-58 -97 29 43 2 -21 -53 -41
-61 -102 31 23 -17 -33 -70 -45
-61 -99 23 14 -23 -43 -75 -49
-67 -93 25 14 -28 -46 -77 -59
-73 -89 37 17 -24 -48 -79 -52
-63 -83 52 15 -24 -53 -75 -52
-63 -91 39 15 -29 -59 -78 -52
-77 -102 32 11 -37 -52 -91 -64
-78 -95 36 12 -32 -53 -89 -69
-73 -82 36 5 -43 -58 -89 -70
-71 -81 33 0 -51 -63 -100 -64
-68 -86 25 -3 -47 -75 -102 -68
-69 -85 30 -6 -49 -85 -104 -73
-69 -85 45 3 -51 -91 -103 -76
-72 -81 48 2 -51 -96 -107 -74
-75 -82 56 -3 -47 -90 -106 -74
-74 -82 52 2 -51 -89 -106 -71
-83 -79 51 -2 -54 -80 -109 -77
-83 -75 60 -5 -50 -83 -109 -74
-79 -79 62 -4 -57 -88 -106 -74
-75 -81 58 -5 -61 -89 -106 -75
-75 -75 55 -6 -66 -92 -107 -75
-75 -76 60 -3 -63 -96 -111 -73
-73 -80 58 -2 -57 -95 -115 -78
-74 -82 56 -5 -57 -96 -117 -81
-73 -73 55 -1 -60 -99 -109 -80
-71 -63 59 3 -50 -98 -107 -70
-70 -61 60 4 -41 -88 -108 -75
-63 -55 59 3 -44 -88 -108 -75
-65 -61 57 -1 -53 -84 -106 -73
-70 -67 59 0 -56 -86 -113 -77
-62 -65 60 4 -57 -92 -115 -79
-67 -65 55 4 -61 -93 -114 -80
-69 -67 53 0 -61 -96 -114 -82
-71 -67 60 1 -58 -96 -112 -80
-66 -59 59 3 -54 -95 -110 -81
-66 -55 59 3 -55 -94 -113 -82
-71 -58 54 -1 -56 -89 -113 -84
-66 -53 57 -2 -53 -94 -110 -82
-60 -46 60 2 -61 -91 -111 -77
-64 -42 58 5 -58 -88 -106 -75
-65 -46 58 9 -51 -86 -105 -76
-63 -45 65 11 -51 -84 -104 -77
-60 -45 74 14 -52 -86 -101 -79
-61 -51 69 10 -57 -84 -103 -72
-66 -55 64 5 -57 -82 -104 -74
-70 -56 67 3 -55 -86 -102 -79
-70 -56 69 5 -61 -87 -103 -77
-73 -53 72 11 -61 -83 -101 -79
-70 -59 72 8 -57 -83 -104 -84
-67 -62 71 8 -56 -84 -103 -78
-64 -51 71 7 -60 -81 -103 -78
-65 -46 76 6 -60 -84 -106 -76
-63 -51 72 7 -59 -84 -104 -72
-64 -47 63 6 -62 -82 -103 -81
-60 -45 62 11 -60 -83 -102 -83
-61 -49 69 12 -56 -80 -101 -76
-59 -44 75 11 -50 -79 -95 -74
-60 -49 74 12 -52 -77 -92 -76
-64 -51 73 11 -60 -72 -92 -77
-68 -48 81 11 -56 -75 -93 -78
-66 -52 84 15 -50 -77 -94 -75
-60 -44 82 15 -51 -79 -86 -76
-62 -36 84 15 -52 -79 -84 -77
-60 -41 89 15 -45 -72 -82 -66
-57 -42 89 19 -48 -66 -87 -60
-62 -48 88 16 -52 -70 -93 -67
-70 -63 87 14 -55 -77 -95 -71
-68 -62 79 14 -61 -77 -92 -75
-67 -60 80 14 -56 -80 -89 -79
-71 -62 79 17 -56 -76 -84 -69
-69 -66 73 5 -55 -77 -89 -72
-75 -73 80 7 -57 -77 -93 -80
-75 -67 80 8 -64 -83 -91 -70
-76 -56 82 8 -58 -80 -98 -74
-67 -49 84 17 -51 -71 -96 -73
-50 -47 84 17 -51 -72 -90 -72
-49 -40 89 19 -46 -69 -89 -74
-57 -44 91 23 -50 -73 -90 -70
-56 -48 92 24 -47 -71 -90 -70
-53 -49 87 20 -48 -78 -93 -75
-55 -52 80 20 -51 -84 -92 -78
-51 -50 80 20 -50 -85 -89 -71
-55 -52 75 18 -47 -84 -83 -74
-58 -60 80 14 -43 -85 -83 -74
-59 -67 83 10 -54 -87 -89 -66
-63 -63 84 10 -52 -79 -88 -69
-70 -66 87 9 -51 -77 -89 -66
-66 -63 86 13 -51 -74 -87 -63
-64 -63 84 20 -53 -71 -91 -67
-67 -71 85 19 -62 -73 -90 -71
-67 -80 85 9 -63 -82 -97 -80
-70 -91 81 8 -70 -89 -109 -80
-66 -90 79 4 -77 -94 -111 -78
-64 -84 76 4 -75 -92 -110 -82
-66 -80 67 5 -66 -90 -106 -89
-62 -79 70 5 -66 -89 -107 -87
-53 -69 70 3 -59 -88 -102 -82
-56 -62 71 2 -57 -92 -105 -86
-51 -52 65 3 -65 -90 -111 -79
-42 -46 65 3 -61 -92 -106 -78
-42 -43 73 9 -58 -86 -97 -77
-37 -46 69 9 -57 -84 -99 -75
-39 -58 74 16 -49 -85 -101 -81
-37 -66 76 14 -54 -97 -99 -79
-47 -77 82 8 -64 -103 -100 -83
-55 -81 81 11 -61 -99 -100 -84
-60 -90 77 7 -68 -95 -104 -83
-62 -95 76 3 -64 -91 -108 -81
-69 -94 72 1 -65 -101 -110 -86
-72 -91 69 -2 -70 -95 -109 -89
-72 -87 64 -10 -73 -93 -111 -84
-75 -88 64 -15 -73 -93 -113 -88
-71 -84 59 -19 -82 -93 -118 -86
-73 -82 57 -13 -84 -90 -119 -90
-68 -74 57 -6 -78 -92 -116 -95
-62 -67 58 -6 -75 -95 -115 -88
-53 -62 61 -4 -65 -95 -116 -90
-49 -59 56 -8 -72 -101 -119 -92
-53 -63 59 -13 -74 -95 -116 -87
-52 -67 62 -13 -72 -99 -120 -93
-52 -68 64 -9 -77 -100 -121 -95
-56 -71 59 -7 -76 -98 -118 -91
-59 -74 62 -9 -74 -97 -116 -97
-59 -76 74 -7 -69 -101 -113 -95
-62 -82 76 -10 -74 -104 -120 -96
-64 -86 66 -13 -81 -104 -124 -100
-71 -91 57 -22 -90 -104 -124 -101
-71 -94 60 -22 -85 -104 -123 -102
-66 -88 61 -14 -87 -110 -122 -96
-69 -90 60 -12 -84 -101 -119 -97
-72 -93 61 -13 -83 -102 -121 -99
-69 -94 64 -15 -79 -102 -125 -99
-67 -90 67 -14 -77 -99 -125 -99
-65 -85 62 -15 -82 -103 -128 -102
-69 -85 56 -20 -85 -100 -130 -106
-70 -87 56 -20 -88 -102 -131 -106
-64 -83 56 -16 -86 -106 -129 -103
-68 -81 56 -12 -82 -106 -128 -104
-70 -84 61 -10 -79 -106 -125 -104
-64 -90 59 -12 -78 -106 -125 -103
-64 -84 60 -12 -81 -106 -126 -101
-60 -78 57 -12 -81 -109 -127 -102
-62 -86 52 -12 -76 -107 -129 -100
-60 -86 51 -10 -74 -109 -125 -105
-61 -84 56 -7 -85 -112 -130 -104
-61 -89 56 -3 -87 -109 -135 -96
-68 -92 51 -5 -77 -107 -133 -104
-69 -91 50 -4 -76 -108 -131 -105
-69 -91 52 -5 -80 -110 -128 -106
-73 -92 50 -4 -81 -108 -131 -105
-70 -97 51 -6 -81 -114 -137 -102
-66 -102 51 -10 -82 -115 -136 -104
-70 -96 51 -14 -85 -118 -136 -103
-68 -89 53 -14 -82 -116 -139 -103
-64 -88 54 -11 -78 -105 -139 -101
-60 -88 56 -9 -84 -112 -140 -99
-60 -87 58 -10 -82 -117 -141 -106
-58 -83 55 -7 -78 -122 -139 -102
-59 -78 56 -3 -74 -117 -135 -108
-59 -79 54 -4 -76 -114 -139 -103
-53 -83 52 -11 -77 -116 -141 -100
-52 -87 45 -8 -77 -117 -143 -108
-56 -95 44 -4 -84 -120 -146 -111
-58 -100 46 -4 -75 -120 -143 -109
-57 -99 53 -3 -76 -117 -140 -107
-48 -89 54 2 -79 -111 -137 -100
-55 -85 51 4 -68 -108 -131 -105
-64 -76 51 4 -62 -110 -131 -99
-59 -75 58 5 -69 -109 -133 -101
-59 -77 54 4 -67 -114 -136 -107
-64 -79 63 6 -68 -122 -140 -108
-61 -79 68 12 -65 -113 -140 -103
-65 -71 73 17 -60 -105 -140 -105
-53 -61 74 13 -57 -103 -138 -96
-52 -67 74 11 -55 -98 -126 -90
-48 -58 68 16 -59 -105 -117 -90
-49 -49 72 18 -58 -111 -118 -87
-40 -37 71 24 -46 -105 -114 -77
-42 -29 70 31 -41 -99 -109 -76
-30 -25 74 35 -28 -88 -106 -66
-28 -20 79 49 -21 -75 -91 -67
-19 -15 77 59 -10 -65 -92 -62
-13 -16 74 65 0 -57 -88 -61
-4 2 78 67 0 -59 -85 -53
-11 12 79 61 -5 -56 -76 -48
-7 21 77 63 -7 -46 -76 -42
-1 33 71 69 0 -39 -68 -42
0 32 75 64 2 -35 -73 -40
2 42 65 71 0 -42 -69 -41
13 47 66 65 5 -41 -67 -39
26 54 52 72 1 -33 -62 -38
32 59 52 67 -2 -28 -60 -31
41 56 41 59 4 -24 -58 -31
40 60 31 51 -10 -25 -58 -19
42 62 19 34 -14 -26 -54 -15
25 60 15 20 -26 -31 -50 -19
33 60 13 8 -26 -43 -53 -12
17 41 5 -3 -37 -48 -57 -21
15 40 0 -17 -46 -59 -67 -21
3 27 -1 -28 -48 -68 -69 -37
7 34 -6 -24 -53 -71 -79 -34
0 26 -10 -25 -57 -70 -75 -40
-1 26 -13 -30 -57 -67 -81 -39
-3 26 -19 -25 -64 -60 -76 -41
-6 31 -25 -26 -67 -60 -78 -38
-12 25 -18 -26 -66 -55 -67 -36
-13 28 -6 -27 -65 -60 -59 -29
-21 7 -11 -26 -63 -54 -63 -37
-26 3 0 -25 -67 -57 -69 -35
-23 -5 5 -26 -59 -73 -72 -46
-32 -13 13 -17 -52 -71 -80 -53
-27 -22 16 -12 -54 -76 -84 -58
-33 -32 22 -17 -53 -71 -90 -65
-33 -36 23 -19 -63 -81 -103 -67
-40 -55 23 -25 -63 -85 -113 -68
-53 -64 24 -31 -71 -90 -115 -80
-55 -69 25 -32 -83 -102 -111 -77
-71 -82 19 -32 -86 -97 -120 -88
-72 -92 13 -41 -89 -105 -128 -100
-79 -102 17 -42 -88 -108 -128 -104
-78 -98 18 -45 -90 -115 -129 -97
-75 -96 24 -47 -87 -115 -136 -99
-85 -101 17 -45 -91 -112 -141 -104
-79 -87 13 -52 -95 -118 -140 -114
-72 -91 19 -43 -90 -117 -141 -103
-76 -89 24 -40 -89 -118 -134 -96
-78 -87 34 -42 -90 -117 -124 -95
-80 -94 20 -37 -87 -108 -120 -95
-84 -107 20 -36 -88 -112 -137 -105
-83 -110 29 -45 -85 -120 -143 -95
-89 -112 34 -51 -85 -136 -143 -93
-90 -106 28 -44 -102 -141 -147 -102
-88 -120 12 -52 -109 -128 -152 -111
-92 -121 16 -49 -96 -118 -141 -112
-81 -115 13 -55 -90 -124 -144 -104
-85 -109 2 -50 -89 -125 -151 -86
-74 -98 23 -50 -86 -132 -148 -87
-92 -87 20 -41 -102 -132 -147 -99
-85 -146 5 -22 -78 -116 -174 -114
-104 -163 26 11 -73 -123 -181 -144
-106 -158 116 44 -4 -136 -194 -168
-119 -185 140 162 52 -141 -199 -180
-128 -169 213 207 83 -97 -184 -187
-140 -143 246 239 122 -122 -174 -193
-146 -162 282 311 189 -125 -210 -207
-92 -91 294 374 246 -60 -189 -225
-66 -45 286 475 296 59 -129 -171
-23 -30 294 550 385 166 -22 -79
-8 44 278 575 454 298 97 15
128 136 216 572 534 429 198 94
193 185 109 494 473 515 380 201
256 349 59 379 427 684 608 393
377 464 -39 192 374 789 816 579
455 524 -178 -50 262 946 1004 774
492 569 -310 -272 183 1091 1152 965
537 718 -436 -531 131 1160 1329 1047
623 871 -508 -701 12 1282 1491 1229
714 905 -594 -828 -7 1375 1580 1334
698 867 -617 -952 -48 1376 1601 1350
586 776 -598 -1043 -198 1282 1475 1257
557 714 -573 -1124 -392 1037 1268 1078
419 598 -571 -1209 -560 785 1032 930
301 538 -598 -1232 -665 587 781 816
211 381 -567 -1248 -737 374 559 623
68 288 -561 -1199 -947 100 368 433
-25 163 -460 -1198 -1067 -158 116 276
-75 45 -380 -1136 -1147 -431 -55 72
-193 -45 -325 -1081 -1199 -608 -243 -66
-282 -109 -258 -1016 -1193 -688 -385 -129
-305 -125 -230 -918 -1088 -668 -444 -223
-288 -178 -198 -823 -1006 -600 -443 -261
-307 -196 -197 -759 -946 -578 -430 -293
-318 -202 -148 -700 -828 -530 -434 -298
-291 -198 -114 -562 -720 -477 -404 -282
-255 -200 -80 -492 -606 -414 -384 -264
-235 -172 -44 -385 -520 -362 -322 -239
-212 -162 -26 -315 -411 -279 -294 -209
-177 -164 -29 -235 -377 -265 -280 -183
-167 -140 -16 -191 -346 -262 -253 -202
-132 -136 8 -156 -278 -211 -212 -147
-106 -127 8 -115 -217 -181 -180 -151
-87 -125 39 -71 -175 -150 -153 -131
-107 -127 32 -57 -145 -108 -127 -136
-119 -135 38 -29 -127 -97 -121 -119
-103 -138 57 -20 -105 -78 -124 -120
-87 -131 58 -21 -101 -83 -122 -120
-102 -131 48 -8 -92 -81 -125 -126
-110 -132 71 -5 -104 -85 -128 -136
-103 -143 79 0 -93 -101 -139 -134
-108 -152 73 -4 -99 -99 -154 -140
-107 -147 51 3 -86 -93 -167 -140
-111 -145 65 7 -82 -96 -168 -143
-110 -129 69 15 -84 -111 -164 -148
-103 -127 67 6 -87 -105 -166 -137
-94 -125 67 10 -70 -116 -150 -129
-88 -124 58 8 -71 -120 -150 -119
-92 -131 57 0 -71 -116 -155 -120
-88 -136 58 -5 -71 -120 -147 -130
-84 -139 54 -1 -82 -120 -145 -113
-80 -145 49 0 -75 -112 -142 -105
-80 -141 46 0 -64 -97 -138 -105
-73 -132 43 6 -71 -99 -133 -101
-66 -138 39 6 -69 -100 -133 -108
-69 -132 47 12 -68 -104 -137 -110
-66 -127 40 16 -61 -110 -141 -111
-70 -130 37 24 -58 -100 -147 -110
-71 -129 40 34 -46 -86 -142 -110
-67 -132 49 42 -36 -78 -137 -111
-60 -128 60 56 -36 -80 -133 -104
-60 -133 58 52 -37 -82 -134 -97
-66 -139 58 51 -37 -78 -130 -95
-64 -135 52 48 -47 -84 -123 -103
-63 -138 51 47 -49 -83 -127 -104
-65 -135 47 53 -41 -77 -123 -99
-60 -126 35 47 -30 -78 -123 -102
-55 -125 41 52 -24 -74 -125 -93
-57 -126 41 62 -18 -68 -118 -90
-65 -123 42 67 -9 -59 -115 -96
-58 -124 51 73 -7 -62 -118 -89
-53 -123 42 73 -4 -64 -120 -86
-57 -116 45 71 6 -61 -113 -85
-58 -120 53 75 6 -53 -103 -83
-59 -120 60 81 3 -49 -101 -80
-61 -121 58 77 7 -44 -102 -78
-57 -122 56 74 11 -47 -98 -77
-44 -110 54 85 22 -53 -93 -68
-42 -109 49 91 36 -39 -94 -73
-40 -115 51 98 39 -31 -93 -71
-37 -112 51 96 37 -33 -91 -70
-34 -110 46 94 39 -32 -95 -66
-31 -109 42 104 54 -23 -82 -57
-29 -101 42 116 66 -11 -68 -51
-20 -97 44 120 68 -3 -61 -51
-20 -103 45 123 77 4 -62 -47
-21 -106 46 127 89 4 -61 -44
-18 -99 44 126 97 4 -57 -45
-19 -96 45 132 109 24 -50 -42
-14 -90 45 142 113 32 -45 -34
-8 -88 48 145 114 27 -44 -35
-13 -91 45 154 124 27 -39 -31
-12 -88 47 165 136 33 -33 -31
-4 -82 47 170 144 50 -24 -23
2 -74 42 178 146 67 -17 -17
12 -68 39 187 159 79 -14 -10
18 -71 31 187 171 79 -8 -7
30 -61 22 192 183 80 2 3
41 -52 25 205 193 99 15 11
39 -54 31 212 198 117 23 21
39 -46 29 223 215 124 33 28
50 -29 19 229 231 129 44 33
60 -23 23 234 250 149 65 40
69 -21 19 250 270 164 83 62
83 -7 17 274 281 184 96 73
99 0 20 278 301 211 106 75
89 -3 17 292 312 226 112 85
91 11 -2 286 316 243 130 96
105 22 -2 297 330 266 150 110
110 21 -9 312 339 278 163 127
113 33 -27 320 347 274 170 122
103 35 -22 327 361 292 186 124
101 36 -17 339 376 299 197 132
117 56 -25 340 387 310 203 149
126 69 -26 347 398 332 215 167
138 84 -32 347 408 347 231 173
134 90 -32 353 418 355 237 186
137 93 -40 357 419 374 252 192
157 112 -35 378 437 379 269 214
160 119 -45 376 441 393 283 229
161 136 -59 381 462 403 294 232
182 153 -62 383 467 406 308 245
180 156 -71 376 471 415 325 254
180 156 -86 378 474 420 336 263
185 158 -94 380 482 427 338 274
197 173 -96 378 496 449 350 279
188 175 -103 382 508 460 355 292
179 174 -101 379 505 464 363 290
183 187 -100 382 504 459 372 303
187 197 -100 374 490 457 368 307
180 202 -97 369 487 459 377 309
173 208 -86 369 476 468 382 302
168 204 -73 374 474 461 373 309
165 186 -64 366 468 453 363 301
159 184 -62 365 465 448 354 296
151 175 -55 364 447 440 348 276
134 163 -61 355 435 439 333 270
128 147 -46 345 413 413 317 256
133 154 -48 328 388 382 309 249
127 164 -37 319 372 369 292 245
113 150 -36 316 369 357 287 238
102 133 -25 306 357 342 270 215
96 123 -16 296 333 330 248 207
81 98 -8 293 319 313 220 186
73 83 0 277 311 293 203 174
63 65 8 266 287 269 188 153
47 56 6 261 257 255 174 147
36 44 16 247 239 234 162 132
28 25 21 223 208 207 144 110
21 22 28 214 198 188 123 94
9 9 22 198 189 177 105 79
3 -8 31 189 184 166 87 71
-6 -12 25 185 155 163 69 56
-17 -20 30 170 142 147 47 40
-19 -37 48 156 129 120 43 24
-29 -44 47 150 99 86 24 14
-33 -57 48 132 77 66 0 3
-49 -72 37 120 57 54 -5 -11
-54 -78 31 104 33 45 -21 -24
-48 -79 48 97 43 37 -34 -33
-37 -79 39 93 42 35 -37 -37
-33 -80 26 93 31 18 -48 -34
-39 -88 20 78 16 12 -65 -49
-41 -74 24 65 6 -9 -76 -57
-38 -74 32 68 -2 -27 -81 -65
-51 -82 29 67 -9 -30 -91 -65
-54 -89 36 52 -9 -37 -92 -77
-64 -114 30 46 -20 -42 -100 -83
-74 -116 34 38 -42 -45 -105 -87
-73 -107 47 33 -33 -49 -100 -86
-69 -114 48 29 -42 -53 -101 -83
-70 -117 41 28 -50 -61 -101 -85
-76 -115 45 22 -54 -62 -112 -85
-71 -104 41 21 -53 -73 -112 -88
-70 -103 39 23 -58 -72 -122 -101
-73 -109 43 23 -59 -73 -129 -100
-70 -101 43 24 -58 -83 -125 -103
-71 -104 36 26 -55 -78 -133 -95
-76 -109 34 25 -51 -76 -136 -105
-74 -102 34 21 -54 -80 -135 -111
-76 -107 41 17 -61 -88 -133 -110
-76 -115 44 17 -67 -93 -139 -110
-81 -114 42 12 -74 -96 -143 -109
-85 -113 41 8 -74 -97 -139 -108
-81 -108 47 13 -75 -96 -134 -106
-73 -96 52 17 -70 -98 -131 -103
-69 -94 54 16 -64 -96 -134 -105
-65 -96 45 14 -72 -102 -139 -99
-69 -99 41 4 -72 -102 -145 -106
-67 -96 44 4 -69 -105 -147 -112
-67 -95 40 8 -69 -105 -144 -111
-70 -94 43 16 -64 -98 -144 -107
-68 -91 47 17 -66 -103 -145 -110
-65 -93 48 10 -67 -107 -148 -100
-69 -92 49 7 -61 -108 -140 -103
-71 -86 51 6 -61 -108 -139 -111
-72 -85 54 4 -67 -105 -138 -105
-70 -85 52 3 -69 -101 -141 -102
-70 -85 54 4 -70 -99 -145 -104
-71 -89 59 6 -64 -101 -139 -101
-68 -85 59 8 -63 -98 -138 -107
-65 -79 52 6 -67 -99 -142 -107
-64 -81 48 -4 -69 -98 -144 -109
-59 -77 46 -1 -75 -107 -149 -108
-56 -78 39 4 -74 -113 -155 -111
-64 -85 36 3 -73 -113 -155 -114
-62 -80 34 1 -73 -117 -146 -116
-62 -75 38 4 -64 -107 -147 -114
-63 -72 41 13 -61 -98 -144 -107
-60 -69 45 14 -59 -95 -142 -104
-61 -72 52 6 -60 -94 -139 -109
-58 -70 50 6 -64 -98 -136 -110
-60 -68 55 11 -65 -97 -133 -105
-63 -65 58 13 -62 -91 -129 -101
-62 -64 58 12 -60 -90 -136 -100
-61 -70 57 9 -62 -93 -137 -102
-64 -70 59 13 -63 -95 -131 -104
-62 -70 61 13 -58 -99 -133 -101
-64 -70 61 7 -60 -97 -133 -105
-59 -65 55 7 -63 -95 -132 -105
-62 -67 48 12 -64 -96 -137 -106
-73 -66 56 17 -59 -93 -136 -105
-67 -63 60 18 -53 -95 -134 -104
-65 -65 55 16 -55 -90 -136 -106
-69 -60 52 13 -62 -90 -132 -103
-66 -56 56 15 -60 -90 -132 -98
-59 -54 60 20 -55 -88 -132 -95
-57 -53 63 19 -59 -95 -132 -101
-59 -58 66 19 -61 -99 -136 -103
-54 -62 64 20 -63 -104 -140 -102
-55 -56 59 16 -62 -100 -140 -109
-47 -51 58 16 -60 -100 -138 -105
-45 -50 49 22 -52 -98 -133 -99
-43 -56 53 19 -50 -95 -132 -95
-44 -55 59 22 -52 -98 -125 -90
-46 -57 56 20 -49 -102 -127 -94
-53 -63 58 24 -53 -100 -129 -94
-53 -61 51 21 -51 -101 -120 -91
-51 -59 50 17 -47 -97 -125 -96
-50 -57 53 22 -50 -93 -126 -92
-53 -62 43 18 -53 -95 -130 -94
-53 -61 42 12 -56 -97 -134 -94
-49 -58 39 5 -63 -97 -134 -93
-52 -55 36 10 -67 -95 -141 -97
-51 -50 34 18 -58 -98 -142 -96
-53 -49 34 16 -60 -100 -142 -96
-49 -46 39 13 -55 -102 -142 -100
-46 -51 45 12 -57 -103 -144 -104
-46 -47 48 17 -62 -101 -137 -102
-39 -48 42 14 -63 -105 -139 -96
-37 -51 35 8 -64 -97 -142 -99
-32 -42 39 8 -61 -98 -132 -100
-35 -39 38 17 -57 -99 -126 -93
-35 -44 37 13 -55 -97 -125 -85
-35 -45 41 4 -57 -94 -125 -92
-38 -50 43 3 -61 -98 -130 -96
-45 -51 38 8 -69 -104 -131 -95
-49 -54 29 3 -62 -109 -129 -93
-45 -57 29 -2 -57 -109 -137 -98
-43 -56 29 -1 -65 -104 -140 -105
-52 -59 24 2 -67 -111 -145 -102
-53 -59 22 -4 -73 -113 -146 -95
-46 -55 17 -19 -81 -111 -146 -100
-56 -52 13 -21 -87 -107 -149 -104
-53 -48 6 -17 -87 -110 -146 -96
-52 -42 8 -10 -84 -111 -144 -97
-44 -39 15 -13 -77 -116 -149 -109
-40 -44 18 -17 -82 -113 -155 -107
-45 -42 19 -17 -81 -105 -150 -104
-46 -48 18 -20 -85 -116 -155 -107
-37 -47 17 -23 -87 -112 -157 -107
-38 -42 18 -20 -87 -113 -149 -115
-43 -44 20 -12 -84 -116 -145 -111
-32 -47 21 -13 -76 -118 -139 -97
-31 -46 27 -21 -79 -116 -139 -108
-33 -54 35 -27 -84 -120 -145 -109
-45 -62 25 -22 -91 -117 -146 -103
-53 -62 14 -23 -84 -115 -145 -108
-48 -63 13 -27 -87 -112 -148 -109
-49 -66 12 -27 -89 -110 -143 -110
-57 -68 15 -24 -86 -124 -143 -110
-58 -71 17 -24 -89 -121 -145 -104
-56 -69 11 -33 -97 -117 -149 -108
-65 -65 12 -37 -97 -115 -153 -118
-58 -65 5 -28 -98 -109 -153 -105
-49 -59 -2 -19 -91 -106 -146 -107
-42 -50 2 -20 -86 -105 -147 -114
-36 -51 6 -21 -96 -103 -152 -105
-36 -50 3 -16 -89 -105 -149 -104
-43 -54 4 -18 -93 -115 -155 -110
-36 -57 6 -20 -96 -112 -153 -111
-40 -61 0 -13 -96 -114 -153 -123
-44 -66 2 -10 -91 -116 -157 -123
-31 -69 2 -8 -86 -119 -148 -111
-34 -66 -1 -12 -87 -120 -146 -116
-38 -67 13 -18 -86 -119 -150 -117
-40 -75 15 -13 -93 -114 -146 -104
-46 -76 0 -11 -95 -114 -145 -111
-44 -76 -1 -13 -98 -111 -152 -112
-42 -77 -1 -8 -91 -110 -140 -107
-49 -72 3 -5 -83 -120 -139 -112
-50 -77 10 -7 -87 -114 -144 -105
-51 -84 7 -11 -93 -115 -145 -104
-55 -86 4 -17 -96 -119 -152 -114
-53 -89 0 -15 -94 -113 -156 -108
-49 -84 -8 -9 -91 -113 -148 -112
-51 -77 -9 -12 -91 -114 -151 -114
-48 -77 -3 -13 -99 -111 -153 -104
-43 -75 -2 -11 -90 -119 -149 -106
-51 -74 1 -11 -89 -120 -153 -109
-50 -78 6 -8 -89 -112 -151 -107
-46 -79 0 -9 -89 -115 -152 -112
-46 -78 3 -12 -90 -114 -156 -114
-44 -80 4 -9 -91 -116 -153 -110
-50 -82 4 -7 -87 -122 -155 -113
-54 -84 10 -13 -87 -126 -158 -115
-53 -89 15 -17 -94 -126 -157 -116
-52 -90 15 -12 -96 -129 -159 -120
-60 -93 14 -10 -96 -125 -164 -123
-58 -92 16 -9 -88 -123 -161 -115
-61 -82 18 -13 -92 -125 -154 -120
-59 -78 18 -17 -94 -119 -155 -114
-56 -84 21 -12 -87 -121 -151 -108
-59 -80 19 -6 -84 -117 -149 -115
-53 -80 23 -4 -88 -118 -157 -116
-49 -86 14 -10 -88 -122 -158 -110
-53 -85 9 -12 -87 -114 -157 -111
-51 -80 13 -12 -91 -116 -157 -110
-54 -77 17 -16 -88 -125 -152 -116
-57 -64 10 -19 -92 -130 -157 -111
-57 -71 13 -21 -90 -135 -162 -117
-61 -66 17 -17 -81 -134 -158 -118
-60 -61 25 -9 -79 -133 -160 -118
-63 -66 28 -4 -75 -122 -163 -116
-70 -65 35 -7 -76 -117 -159 -111
-59 -52 31 -11 -76 -117 -157 -102
-58 -45 38 -9 -77 -114 -144 -95
-50 -31 42 -7 -77 -116 -131 -86
-53 -25 49 -5 -71 -113 -123 -88
-50 -20 56 5 -61 -101 -120 -87
-46 -7 58 14 -57 -94 -113 -86
-32 0 60 20 -34 -87 -114 -73
-31 7 56 34 -22 -67 -108 -77
-14 15 61 36 -15 -63 -110 -74
-10 26 62 50 -14 -62 -98 -66
0 42 66 47 -19 -65 -102 -55
-5 34 64 41 -17 -58 -96 -63
-10 30 57 37 -27 -56 -92 -61
-3 37 53 32 -33 -65 -87 -56
-6 35 53 23 -29 -67 -91 -50
-12 34 35 21 -30 -74 -95 -56
-9 41 33 14 -32 -68 -91 -63
4 47 21 12 -38 -61 -87 -52
5 46 22 6 -41 -60 -92 -45
12 52 11 1 -41 -57 -95 -47
6 58 -1 1 -54 -54 -88 -46
14 68 -8 0 -55 -57 -85 -41
10 81 -4 -5 -54 -54 -74 -34
21 89 -5 -13 -40 -56 -72 -34
18 74 -10 -17 -51 -50 -78 -37
17 83 -15 -23 -62 -48 -75 -30
15 73 -11 -33 -59 -58 -78 -40
22 74 -17 -23 -60 -57 -84 -39
16 65 -25 -23 -65 -64 -79 -45
15 62 -19 -27 -59 -70 -81 -47
17 65 -15 -26 -66 -73 -77 -45
9 59 -20 -36 -64 -73 -86 -53
0 43 -15 -41 -69 -73 -84 -52
0 41 -11 -48 -83 -76 -79 -39
-11 26 -15 -53 -80 -75 -89 -51
-19 16 -14 -53 -84 -81 -102 -51
-28 5 -17 -55 -91 -93 -102 -67
-31 3 -11 -54 -95 -106 -111 -73
-34 -8 -8 -54 -98 -104 -115 -76
-40 -18 -12 -65 -96 -103 -124 -90
-44 -28 -13 -66 -108 -104 -132 -96
-42 -35 -22 -66 -117 -106 -136 -88
-46 -34 -18 -68 -112 -107 -134 -94
-47 -38 -15 -71 -110 -109 -132 -93
-52 -44 -23 -70 -117 -109 -134 -101
-53 -48 -10 -70 -116 -115 -134 -98
-53 -56 -1 -72 -112 -127 -136 -101
-58 -60 0 -67 -112 -130 -144 -111
-59 -64 1 -65 -112 -132 -149 -117
-60 -73 3 -66 -115 -127 -150 -117
-56 -68 0 -65 -114 -128 -149 -114
-58 -77 -1 -70 -108 -127 -155 -115
-59 -82 -4 -73 -112 -126 -152 -114
-67 -82 -1 -73 -116 -133 -141 -105
-80 -80 2 -75 -114 -133 -141 -107
-77 -83 -2 -73 -120 -134 -147 -113
-84 -85 -5 -72 -112 -136 -146 -116
-76 -78 2 -76 -107 -138 -150 -109
-70 -74 10 -74 -112 -137 -159 -107
-83 -79 7 -76 -112 -137 -163 -113
-78 -75 -4 -84 -119 -138 -161 -122
-71 -80 -2 -76 -111 -139 -164 -114
-87 -81 5 -74 -111 -142 -161 -111
-92 -74 10 -75 -115 -146 -153 -106
-93 -73 0 -56 -107 -142 -143 -112
-79 -80 0 -51 -113 -139 -164 -134
-78 -85 16 -50 -107 -136 -172 -110
-89 -95 26 -55 -96 -145 -170 -111
-81 -84 18 -42 -112 -159 -182 -123
-66 -89 10 -45 -112 -145 -171 -120
-80 -86 8 -43 -102 -129 -156 -131
-84 -125 3 -33 -85 -134 -184 -129
-90 -138 9 -9 -89 -142 -190 -133
-98 -130 69 36 -54 -173 -232 -154
-103 -138 121 148 -15 -161 -230 -191
-112 -186 172 219 45 -114 -237 -227
-105 -204 186 310 91 -110 -230 -246
-86 -199 270 329 149 -104 -228 -255
-51 -155 285 437 220 -56 -199 -235
18 -92 292 490 301 60 -109 -157
54 -22 298 502 392 149 5 -57
47 66 285 504 450 305 159 53
147 175 239 477 536 446 246 106
206 253 196 451 524 581 436 223
283 357 135 329 544 707 623 393
345 508 50 193 473 830 815 545
438 602 -57 -8 423 983 968 730
498 679 -232 -222 318 1099 1163 920
541 881 -391 -497 239 1245 1364 1054
639 993 -575 -708 171 1406 1520 1202
734 1046 -706 -958 121 1523 1664 1343
726 1005 -826 -1135 -37 1516 1699 1416
638 952 -836 -1256 -155 1433 1620 1351
600 803 -814 -1345 -310 1195 1397 1203
476 603 -788 -1332 -465 923 1097 1003
365 416 -728 -1314 -554 635 771 833
188 215 -634 -1285 -754 274 428 549
46 111 -532 -1238 -938 -95 120 334
-74 -22 -467 -1268 -1082 -368 -112 153
-104 -31 -405 -1210 -1142 -523 -262 15
-148 -89 -368 -1138 -1154 -602 -338 -62
-183 -111 -338 -1071 -1122 -645 -391 -130
-196 -172 -282 -959 -1085 -683 -455 -181
-207 -187 -258 -877 -1048 -703 -506 -284
-212 -193 -235 -781 -937 -695 -517 -330
-220 -216 -207 -660 -863 -631 -508 -351
-177 -213 -175 -558 -766 -570 -483 -322
-182 -210 -118 -490 -673 -510 -430 -316
-182 -191 -95 -380 -593 -450 -397 -302
-172 -213 -80 -331 -469 -374 -361 -289
-139 -198 -62 -244 -387 -346 -308 -265
-122 -178 -51 -173 -305 -282 -282 -222
-91 -150 -26 -122 -243 -219 -223 -168
-87 -134 -12 -103 -172 -178 -204 -167
-68 -113 1 -72 -159 -169 -171 -133
-57 -104 24 -76 -153 -170 -150 -135
-61 -131 22 -75 -158 -168 -155 -114
-61 -129 -3 -56 -158 -171 -157 -114
-71 -135 16 -46 -138 -144 -156 -126
-83 -120 16 -16 -117 -143 -152 -133
-92 -120 24 -13 -110 -126 -157 -114
-74 -119 36 -3 -78 -118 -154 -107
-69 -117 23 -12 -85 -122 -155 -122
-90 -126 17 -10 -89 -126 -163 -127
-93 -122 35 -11 -95 -126 -164 -142
-76 -115 48 0 -100 -131 -163 -127
-80 -122 35 1 -103 -112 -167 -122
-81 -120 22 4 -81 -101 -172 -126
-78 -115 29 10 -82 -107 -166 -123
-73 -110 42 14 -79 -120 -154 -130
-67 -100 43 12 -77 -120 -154 -123
-70 -103 37 11 -71 -120 -148 -117
-63 -104 37 14 -68 -123 -152 -113
-61 -101 44 17 -64 -109 -146 -110
-62 -96 45 25 -53 -104 -136 -116
-51 -102 53 38 -54 -105 -135 -101
-43 -106 49 34 -52 -103 -136 -89
-51 -99 50 28 -49 -99 -131 -90
-49 -91 51 36 -58 -99 -126 -94
-46 -99 46 45 -47 -95 -124 -98
-46 -96 48 51 -37 -87 -120 -94
-39 -84 39 51 -39 -89 -120 -91
-37 -85 49 59 -28 -85 -122 -81
-40 -87 52 75 -19 -79 -117 -78
-41 -87 49 75 -18 -76 -117 -87
-39 -92 59 74 -21 -77 -118 -85
-36 -91 48 76 -27 -82 -123 -85
-35 -91 42 76 -19 -82 -124 -87
-35 -90 53 78 -23 -74 -110 -81
-35 -88 51 79 -28 -77 -108 -76
-45 -92 51 81 -22 -69 -113 -77
-36 -88 49 85 -21 -67 -107 -75
-23 -72 49 96 -14 -74 -107 -67
-19 -72 51 100 1 -64 -108 -72
-22 -80 48 107 1 -54 -98 -74
-24 -78 54 111 9 -55 -98 -67
-23 -74 58 111 13 -54 -103 -63
-20 -75 63 113 15 -54 -96 -58
-22 -78 60 116 22 -50 -86 -58
-18 -73 56 123 30 -41 -83 -57
-12 -73 57 129 40 -35 -81 -54
-16 -69 57 129 44 -33 -78 -57
-8 -60 63 132 51 -27 -72 -47
-1 -62 68 141 64 -17 -66 -42
0 -67 68 150 66 -11 -66 -36
-3 -67 70 150 62 -8 -64 -35
-11 -73 58 149 65 -12 -57 -40
-8 -78 64 159 76 -10 -56 -35
1 -76 68 166 86 3 -47 -28
3 -64 58 168 95 8 -40 -29
7 -61 56 171 104 14 -37 -19
12 -68 55 180 112 18 -34 -14
19 -57 48 179 119 21 -27 -16
18 -54 44 184 128 38 -24 -8
18 -51 40 199 135 53 -18 4
28 -39 40 200 150 49 -12 0
30 -34 44 200 161 56 -2 10
28 -31 50 208 174 70 15 22
39 -22 48 220 184 86 28 34
55 -13 54 231 187 102 40 41
68 -6 53 236 205 111 47 52
67 -8 49 247 228 122 50 62
81 2 36 249 238 132 67 69
91 19 41 265 247 157 85 75
94 21 42 268 249 172 90 95
101 26 32 277 272 182 105 98
103 38 24 295 292 193 123 100
106 41 22 300 306 207 141 105
110 48 14 311 324 225 154 119
122 63 11 338 335 243 158 133
134 72 15 339 361 271 169 140
123 83 8 347 374 287 188 154
128 100 -8 344 382 304 205 163
150 118 -3 364 394 325 227 181
156 133 -9 374 402 348 249 201
154 143 -19 392 426 351 258 210
152 152 -23 390 434 359 275 220
151 158 -18 388 441 369 288 226
153 164 -30 393 446 376 293 233
158 166 -46 395 459 391 293 240
172 176 -49 392 463 404 303 247
169 184 -50 391 467 403 308 259
168 197 -50 393 463 414 323 266
184 205 -48 407 474 415 333 283
191 210 -56 410 469 420 339 293
194 224 -68 400 486 426 343 301
205 234 -67 403 482 434 350 307
207 246 -70 417 482 438 358 314
217 237 -72 417 481 440 370 324
223 228 -77 409 485 444 378 324
241 236 -76 411 486 453 387 324
231 225 -82 415 497 465 388 333
226 211 -84 412 486 470 395 332
226 223 -93 402 474 459 397 335
229 231 -87 387 469 451 392 332
222 227 -93 380 467 446 395 332
210 223 -80 373 456 443 391 324
200 221 -62 371 442 427 380 322
193 206 -51 357 427 414 363 312
183 199 -37 352 420 403 348 302
165 190 -31 342 392 386 338 282
149 179 -33 324 372 372 317 278
129 164 -23 308 341 342 296 256
128 168 -21 288 308 303 278 248
119 163 -3 273 292 287 254 234
101 153 4 263 282 267 244 219
97 137 16 259 266 249 220 199
93 127 24 259 252 241 199 190
76 108 26 253 242 222 176 167
64 91 35 236 230 203 154 154
58 69 41 228 207 177 134 133
44 62 43 215 178 154 123 121
35 51 44 203 162 141 111 114
24 37 41 186 140 129 100 96
22 34 51 176 143 118 86 88
21 22 49 166 133 110 78 75
12 5 54 166 131 97 59 61
0 -9 48 156 106 90 34 43
-6 -8 51 140 92 73 14 30
-7 -17 61 128 79 55 6 18
-19 -24 61 118 60 36 -10 12
-18 -35 58 103 49 23 -22 1
-34 -50 51 95 35 13 -29 -11
-37 -58 50 76 15 0 -42 -23
-38 -54 56 66 16 -8 -46 -29
-38 -57 52 59 12 -12 -52 -30
-37 -58 48 52 10 -22 -58 -28
-34 -52 44 43 -3 -26 -63 -34
-35 -46 41 38 -1 -36 -66 -39
-32 -47 44 44 0 -38 -71 -45
-39 -47 42 48 -1 -40 -73 -46
-37 -49 53 39 -6 -46 -78 -53
-39 -60 44 32 -12 -51 -86 -49
-49 -64 39 27 -20 -50 -89 -57
-49 -62 51 30 -12 -53 -87 -60
-49 -63 52 26 -21 -55 -84 -63
-48 -64 44 22 -27 -58 -88 -63
-48 -65 43 18 -31 -62 -96 -62
-45 -63 45 13 -28 -70 -98 -61
-47 -60 45 17 -29 -71 -99 -66
-51 -64 43 18 -32 -73 -102 -73
-50 -64 47 19 -36 -73 -103 -73
-49 -65 42 18 -39 -72 -105 -66
-50 -67 41 14 -34 -69 -107 -73
-46 -61 44 17 -31 -74 -104 -73
-47 -62 41 16 -40 -79 -104 -76
-48 -63 41 11 -41 -81 -111 -75
-47 -61 40 10 -42 -82 -114 -75
-49 -60 34 11 -47 -83 -119 -80
-51 -60 37 12 -46 -83 -119 -82
-53 -59 36 12 -45 -84 -118 -82
-46 -55 37 12 -45 -87 -115 -82
-45 -59 41 14 -42 -88 -118 -79
-54 -61 41 15 -41 -89 -117 -82
-52 -51 41 9 -42 -92 -116 -82
-47 -47 41 4 -47 -86 -117 -80
-45 -39 37 5 -46 -84 -112 -77
-48 -37 33 5 -41 -82 -109 -73
-51 -46 38 6 -35 -79 -112 -71
-48 -43 53 10 -40 -83 -109 -74
-51 -42 49 9 -44 -82 -111 -75
-58 -48 46 17 -40 -79 -110 -76
-57 -44 44 18 -34 -86 -105 -76
-52 -37 42 11 -35 -80 -107 -81
-50 -36 46 14 -37 -71 -112 -75
-50 -37 41 12 -43 -76 -112 -74
-55 -39 39 12 -48 -79 -114 -78
-53 -37 36 14 -46 -74 -113 -74
-53 -29 39 14 -42 -71 -112 -79
-52 -30 39 17 -37 -72 -112 -80
-56 -36 34 22 -36 -72 -111 -78
-50 -26 37 24 -31 -75 -109 -79
-49 -22 42 22 -30 -76 -106 -78
-51 -25 43 22 -33 -68 -104 -78
-43 -16 44 23 -33 -64 -106 -74
-37 -21 44 28 -30 -64 -104 -70
-41 -31 43 26 -28 -69 -101 -71
-50 -27 44 27 -25 -65 -99 -72
-51 -27 48 32 -21 -58 -93 -71
-51 -30 57 26 -28 -59 -96 -73
-58 -31 58 21 -32 -60 -102 -75
-61 -31 46 21 -31 -60 -104 -79
-54 -29 46 24 -29 -61 -97 -73
-48 -31 48 24 -32 -64 -97 -76
-48 -32 46 26 -33 -61 -99 -81
-50 -36 40 25 -29 -60 -101 -74
-46 -39 45 22 -24 -63 -102 -66
-43 -32 50 24 -26 -59 -97 -71
-55 -26 53 27 -26 -51 -96 -78
-55 -26 58 30 -23 -51 -92 -76
-46 -21 53 33 -26 -57 -91 -72
-36 -19 46 22 -28 -53 -100 -80
-37 -27 51 23 -30 -51 -105 -83
-43 -29 42 22 -29 -58 -103 -77
-42 -37 43 10 -29 -71 -112 -84
-41 -29 46 14 -37 -71 -103 -84
-42 -15 48 28 -26 -67 -88 -81
-38 -15 60 42 -15 -59 -87 -80
-30 -16 65 40 -15 -58 -83 -68
-32 -15 61 31 -20 -58 -85 -66
-33 -24 61 28 -23 -59 -94 -74
-39 -32 56 33 -35 -59 -95 -70
-38 -35 48 24 -35 -63 -100 -72
-39 -41 45 14 -31 -69 -108 -75
-41 -43 42 22 -35 -67 -93 -78
-52 -46 41 33 -29 -69 -93 -84
-57 -46 50 34 -31 -61 -94 -74
-44 -50 48 15 -46 -60 -96 -77
-40 -58 39 15 -52 -68 -112 -86
-44 -60 27 20 -53 -74 -111 -79
-46 -53 24 19 -48 -75 -107 -84
-39 -41 38 26 -37 -77 -111 -85
-32 -33 47 23 -38 -66 -109 -82
-38 -27 48 30 -28 -64 -103 -79
-47 -35 50 32 -32 -77 -106 -77
-40 -29 53 19 -50 -64 -107 -87
-31 -21 44 17 -56 -69 -110 -94
-36 -37 31 17 -54 -80 -118 -93
-27 -33 31 13 -53 -89 -115 -83
-28 -25 34 15 -49 -100 -114 -87
-29 -27 45 10 -48 -95 -114 -82
-37 -42 52 9 -51 -87 -106 -77
-45 -50 46 12 -52 -87 -108 -86
-42 -47 54 12 -63 -83 -111 -82
-39 -43 53 15 -58 -80 -108 -75
-43 -48 55 19 -52 -85 -113 -83
-45 -51 53 19 -61 -83 -112 -85
-44 -51 49 5 -67 -89 -121 -91
-49 -58 45 -1 -74 -95 -135 -96
-49 -56 25 -8 -76 -91 -138 -98
-49 -51 25 -3 -77 -91 -133 -106
-43 -39 27 -1 -84 -104 -130 -106
-38 -34 36 -1 -72 -105 -133 -94
-32 -30 40 7 -61 -106 -129 -94
-31 -24 39 7 -64 -110 -131 -99
-36 -23 46 8 -62 -97 -130 -95
-31 -22 44 2 -61 -98 -132 -99
-30 -21 47 0 -62 -95 -130 -95
-29 -25 42 2 -67 -98 -122 -85
-34 -31 51 0 -70 -104 -117 -87
-33 -35 65 2 -62 -105 -114 -87
-40 -45 64 7 -67 -105 -120 -91
-41 -50 54 7 -69 -105 -129 -97
-46 -56 47 -4 -71 -102 -135 -104
-41 -56 42 -3 -70 -102 -134 -103
-39 -48 29 -3 -75 -107 -139 -100
-45 -47 35 -3 -73 -98 -141 -97
-43 -46 36 -1 -76 -105 -132 -97
-45 -47 34 -3 -75 -99 -135 -100
-42 -45 41 1 -66 -94 -133 -99
-40 -38 34 2 -67 -98 -130 -98
-37 -33 32 -6 -67 -95 -135 -99
-35 -33 38 -7 -69 -101 -137 -104
-33 -33 41 -1 -77 -107 -137 -100
-36 -36 38 -4 -78 -108 -144 -101
-34 -36 38 -6 -72 -102 -141 -107
-26 -30 35 -2 -73 -108 -140 -108
-30 -27 33 -3 -69 -108 -139 -109
-34 -26 35 -1 -65 -105 -136 -105
-32 -31 36 0 -69 -106 -138 -101
-38 -41 40 0 -64 -109 -145 -108
-44 -42 47 7 -74 -116 -141 -109
-42 -40 37 7 -71 -115 -138 -107
-42 -40 34 5 -63 -104 -142 -108
-38 -38 36 8 -64 -102 -140 -106
-41 -40 31 8 -69 -108 -140 -105
-47 -45 33 6 -72 -108 -144 -107
-46 -48 32 3 -78 -111 -143 -107
-44 -43 30 2 -73 -107 -146 -110
-47 -40 26 5 -73 -103 -148 -111
-47 -41 28 7 -75 -106 -150 -109
-42 -39 33 8 -68 -107 -149 -110
-43 -42 33 7 -71 -105 -150 -112
-45 -43 33 6 -70 -105 -144 -108
-43 -42 27 8 -71 -113 -143 -107
-37 -42 33 9 -71 -111 -146 -104
-35 -41 38 8 -71 -113 -141 -105
-41 -39 34 13 -69 -112 -143 -105
-39 -41 29 14 -64 -110 -142 -101
-34 -39 27 9 -67 -104 -141 -108
-32 -33 30 14 -66 -103 -144 -109
-31 -41 28 16 -62 -104 -150 -109
-33 -50 33 23 -65 -109 -158 -109
-40 -48 37 24 -70 -116 -157 -117
-45 -51 37 15 -71 -118 -162 -117
-52 -50 39 18 -70 -115 -153 -116
-47 -43 33 17 -70 -109 -143 -112
-33 -40 37 15 -63 -110 -143 -104
-31 -40 36 17 -61 -106 -139 -105
-35 -49 37 23 -68 -102 -144 -100
-31 -59 29 17 -65 -109 -143 -101
-37 -57 29 19 -71 -104 -146 -108
-35 -40 22 24 -78 -103 -145 -103
-39 -38 16 19 -56 -109 -145 -116
-44 -24 22 22 -54 -107 -142 -102
-38 -23 26 20 -66 -115 -142 -104
-45 -30 30 20 -58 -109 -149 -110
-52 -39 43 23 -58 -108 -148 -108
-50 -37 35 25 -61 -105 -151 -108
-56 -28 44 25 -55 -101 -153 -101
-45 -9 45 17 -58 -101 -142 -90
-44 -2 47 13 -56 -100 -130 -85
-40 2 56 15 -60 -100 -118 -81
-34 12 68 18 -60 -99 -106 -75
-23 17 68 27 -42 -94 -108 -66
-26 28 65 36 -32 -78 -109 -71
-11 39 67 42 -17 -76 -105 -64
-13 49 68 58 -5 -65 -96 -66
-4 59 72 66 2 -56 -94 -59
5 60 68 72 5 -51 -86 -62
11 67 69 72 1 -46 -88 -49
8 67 60 60 -10 -43 -79 -47
10 69 58 55 -14 -39 -80 -43
18 75 51 56 -7 -42 -71 -35
13 73 48 48 -13 -40 -75 -40
9 75 42 46 -9 -51 -77 -39
11 78 45 38 -9 -56 -74 -44
23 90 33 42 -15 -52 -75 -43
22 90 37 39 -12 -49 -74 -39
30 94 27 40 -9 -38 -72 -37
36 102 19 41 -19 -33 -71 -31
39 101 14 32 -18 -33 -70 -29
32 102 8 20 -32 -35 -63 -22
31 105 5 10 -32 -46 -61 -18
13 89 2 3 -40 -44 -61 -28
15 94 -4 -2 -49 -53 -62 -24
9 83 -1 -5 -41 -55 -60 -35
17 86 -6 0 -41 -50 -68 -35
24 79 -5 0 -41 -52 -68 -31
21 79 -2 -6 -37 -48 -70 -31
21 82 -8 -12 -50 -55 -72 -35
17 76 -13 -10 -48 -55 -81 -32
3 75 -11 -11 -56 -55 -73 -39
7 74 -4 -18 -56 -61 -69 -37
-4 49 -2 -16 -56 -58 -72 -41
-5 49 -2 -19 -68 -65 -79 -42
-8 30 4 -25 -65 -74 -91 -49
-17 17 4 -27 -66 -76 -95 -54
-18 14 -3 -30 -77 -86 -99 -73
-23 2 -7 -32 -76 -91 -114 -76
-26 2 -7 -32 -81 -93 -111 -79
-28 0 -12 -42 -80 -94 -115 -80
-37 -14 0 -38 -80 -89 -112 -83
-33 -13 6 -33 -93 -95 -108 -74
-37 -18 4 -36 -84 -96 -118 -75
-43 -32 14 -36 -79 -95 -124 -81
-40 -32 8 -39 -89 -112 -125 -95
-45 -39 19 -38 -86 -119 -136 -99
-52 -52 22 -36 -91 -119 -140 -102
-59 -60 14 -45 -98 -119 -148 -115
-67 -67 16 -43 -97 -119 -153 -119
-61 -72 17 -41 -102 -122 -149 -112
-56 -68 20 -42 -94 -124 -148 -108
-60 -70 18 -39 -92 -125 -146 -110
-60 -62 12 -40 -99 -123 -147 -115
-62 -66 13 -43 -99 -121 -145 -113
-69 -73 15 -52 -92 -123 -143 -115
-64 -65 21 -48 -93 -129 -146 -106
-71 -71 16 -44 -98 -127 -152 -108
-80 -75 11 -45 -101 -131 -155 -114
-74 -60 16 -49 -96 -136 -145 -117
-67 -67 17 -45 -82 -135 -149 -116
-75 -69 16 -41 -86 -132 -148 -104
-81 -65 19 -52 -92 -128 -136 -95
-84 -51 9 -44 -85 -129 -129 -103
-72 -56 11 -35 -81 -126 -151 -108
-86 -61 23 -31 -82 -121 -155 -94
-93 -64 50 -21 -69 -140 -153 -94
-96 -66 52 -3 -76 -149 -175 -113
-79 -69 53 -4 -67 -135 -168 -121
-88 -78 50 -8 -64 -136 -163 -131
-99 -121 43 3 -59 -134 -190 -136
-99 -111 50 27 -69 -141 -188 -146
-127 -111 101 75 -29 -167 -240 -165
-128 -118 154 197 8 -140 -227 -194
-124 -160 198 269 58 -96 -222 -223
-107 -167 228 367 126 -78 -212 -236
-75 -150 299 407 187 -60 -202 -236
-11 -124 286 478 255 0 -175 -192
67 -53 269 489 325 148 -48 -91
125 62 259 488 392 261 106 10
138 143 239 458 466 413 267 132
221 234 169 388 518 566 378 213
306 340 99 333 465 723 582 349
376 439 37 186 489 857 795 535
427 587 -39 44 440 1002 1002 693
508 696 -159 -141 386 1153 1140 865
578 764 -329 -354 282 1259 1316 1057
603 967 -460 -616 194 1383 1513 1186
670 1101 -644 -812 104 1499 1637 1298
706 1081 -743 -1014 62 1605 1724 1386
680 998 -816 -1143 -89 1539 1695 1410
589 917 -806 -1235 -192 1386 1551 1303
546 736 -775 -1268 -321 1103 1281 1113
425 524 -731 -1238 -475 776 961 898
249 331 -630 -1211 -567 442 624 714
80 135 -545 -1227 -763 82 270 427
-32 45 -467 -1214 -980 -252 -5 210
-152 -69 -421 -1234 -1123 -495 -196 57
-187 -74 -370 -1205 -1117 -608 -338 -46
-215 -124 -334 -1128 -1103 -661 -408 -123
-233 -147 -304 -1036 -1077 -681 -452 -182
-209 -182 -271 -918 -996 -680 -475 -217
-197 -185 -261 -823 -926 -653 -489 -305
-182 -192 -244 -713 -842 -637 -490 -323
-193 -202 -224 -628 -771 -576 -469 -325
-157 -184 -192 -520 -663 -501 -432 -278
-136 -179 -151 -426 -549 -433 -360 -259
-106 -147 -117 -314 -470 -374 -320 -229
-104 -159 -91 -245 -340 -297 -255 -205
-80 -142 -74 -163 -271 -269 -198 -170
-69 -141 -55 -130 -222 -212 -197 -152
-50 -117 -29 -94 -172 -162 -153 -118
-44 -98 -16 -83 -108 -126 -139 -111
-35 -88 1 -58 -104 -120 -118 -90
-26 -73 13 -51 -107 -119 -107 -91
-26 -92 11 -53 -115 -118 -117 -70
-30 -93 -5 -35 -112 -117 -120 -80
-50 -105 14 -22 -109 -111 -130 -100
-58 -99 12 7 -90 -126 -141 -114
-75 -99 17 8 -82 -108 -151 -111
-62 -92 22 17 -69 -109 -147 -108
-58 -97 23 8 -71 -110 -151 -115
-72 -105 29 18 -75 -113 -147 -108
-72 -110 28 10 -82 -107 -145 -119
-67 -112 31 4 -87 -114 -148 -111
-68 -102 29 3 -85 -101 -142 -112
-74 -91 28 16 -64 -90 -138 -101
-66 -85 34 12 -61 -81 -117 -85
-58 -78 49 9 -58 -76 -105 -87
-55 -78 46 15 -51 -85 -111 -86
-54 -81 46 23 -48 -92 -108 -85
-43 -71 41 26 -43 -104 -109 -75
-44 -77 43 19 -34 -96 -118 -79
-41 -74 37 23 -32 -81 -112 -83
-43 -72 35 39 -25 -82 -105 -71
-37 -70 39 31 -17 -75 -107 -55
-35 -64 34 17 -19 -65 -91 -53
-42 -65 39 26 -25 -52 -89 -62
-40 -65 44 38 -29 -55 -87 -57
-49 -58 44 39 -25 -56 -91 -55
-42 -49 53 39 -15 -63 -95 -63
-29 -42 58 46 -8 -63 -88 -56
-31 -39 56 64 8 -51 -82 -58
-27 -42 62 78 12 -47 -84 -57
-16 -38 66 74 3 -38 -85 -52
-9 -38 50 66 1 -37 -83 -48
-11 -42 35 74 3 -28 -76 -39
-3 -23 39 85 16 -21 -64 -38
4 -17 42 84 20 -30 -63 -50
-7 -25 39 79 14 -23 -71 -38
-13 -27 28 76 26 -24 -67 -40
-12 -26 31 79 40 -27 -71 -44
-6 -16 33 81 43 -13 -60 -44
-12 -9 41 93 46 -5 -55 -46
-5 -17 63 107 50 -15 -56 -31
0 -21 56 108 48 -15 -48 -22
-2 -13 64 110 45 -2 -46 -19
-4 -5 68 113 51 8 -32 -20
2 -5 54 117 57 19 -33 -16
13 -13 42 128 70 23 -35 -13
19 -1 24 122 79 22 -28 -25
31 10 36 127 93 26 -29 -6
32 7 41 141 108 29 -24 -8
23 6 37 139 101 33 -24 -11
20 5 42 139 108 32 -13 3
16 3 32 147 123 32 -11 1
28 6 43 154 133 44 -4 3
32 -5 44 164 143 59 16 11
34 2 43 172 146 65 23 21
47 16 55 174 161 76 32 29
47 17 57 190 173 95 34 45
52 37 40 194 176 101 39 53
58 35 31 199 186 118 42 47
59 15 23 209 191 117 43 45
57 28 7 209 207 109 52 31
47 44 8 214 220 131 61 43
54 40 10 231 238 137 75 61
64 41 8 231 255 148 84 75
72 53 8 238 257 165 106 87
78 65 8 252 269 178 118 91
80 59 19 259 278 191 118 109
82 69 7 250 278 202 135 110
93 94 6 273 297 222 147 131
100 107 21 283 313 238 163 160
112 123 24 295 337 256 185 158
107 130 5 313 341 262 198 158
107 122 -2 318 361 274 203 159
119 126 -14 327 368 278 211 172
133 140 -35 347 379 295 213 181
142 140 -26 346 402 330 225 188
140 136 -33 354 410 330 251 204
145 140 -42 355 410 343 265 209
155 151 -38 373 418 368 285 232
153 174 -41 379 423 395 314 257
162 188 -46 394 452 396 318 269
163 190 -48 392 455 396 332 274
156 202 -54 387 468 405 345 279
156 203 -59 393 465 404 357 289
167 199 -64 393 468 418 351 294
186 203 -63 376 472 427 357 301
181 213 -70 381 492 426 368 319
180 229 -72 391 489 438 389 329
202 238 -69 395 493 444 391 337
207 242 -78 392 480 446 395 344
208 246 -98 381 492 444 389 353
215 246 -92 377 482 444 385 356
214 263 -97 386 481 446 397 358
223 253 -101 386 472 449 408 366
228 235 -105 381 468 451 410 360
239 238 -96 386 462 456 420 357
234 218 -98 377 467 463 419 362
225 202 -100 374 449 470 426 356
227 204 -106 364 433 454 422 359
236 206 -95 351 435 448 416 355
229 211 -102 343 434 443 412 355
222 209 -82 335 419 430 406 350
212 204 -59 333 402 416 392 341
199 187 -42 318 385 400 373 324
189 177 -24 310 374 386 357 307
183 172 -20 300 350 371 348 297
167 159 -22 276 328 357 333 286
146 137 -15 264 299 330 315 266
148 138 -14 249 264 295 305 266
134 123 -3 228 255 281 280 244
117 110 1 207 239 258 266 229
113 94 18 206 238 240 244 209
110 105 44 221 227 228 233 208
99 104 49 213 222 212 216 194
82 84 57 199 220 213 197 182
71 66 52 192 204 186 178 152
56 66 49 180 174 160 166 141
41 59 41 166 170 146 144 140
27 59 35 149 148 131 134 126
24 56 44 144 144 129 126 112
15 32 46 149 130 118 120 100
7 15 53 146 130 111 97 86
-1 -7 52 128 108 100 80 74
-10 -6 48 118 96 84 60 62
-13 -5 56 110 79 68 44 59
-24 1 60 109 62 53 34 50
-27 -11 59 95 62 52 21 42
-34 -19 54 86 45 46 13 36
-33 -26 52 76 33 37 11 21
-29 -36 54 79 36 25 6 19
-24 -41 48 68 30 17 0 10
-25 -43 49 60 31 7 -6 7
-21 -50 46 55 18 3 -19 8
-17 -42 43 48 20 0 -26 0
-21 -35 42 46 23 -2 -26 -11
-25 -34 44 50 19 -11 -28 -2
-20 -28 51 42 9 -14 -29 -9
-21 -44 45 40 9 -21 -33 -9
-32 -53 38 38 0 -20 -40 -20
-32 -42 47 34 3 -21 -40 -23
-29 -45 54 32 -5 -26 -36 -21
-26 -50 42 26 -12 -35 -40 -19
-27 -54 35 17 -22 -39 -45 -23
-27 -57 38 17 -20 -44 -50 -28
-25 -56 39 18 -20 -49 -58 -31
-35 -56 39 17 -22 -50 -65 -39
-38 -51 38 19 -22 -53 -66 -39
-33 -39 32 17 -24 -53 -63 -31
-34 -32 27 9 -21 -42 -61 -39
-37 -33 32 12 -18 -44 -60 -36
-32 -32 35 12 -27 -51 -56 -34
-37 -39 30 10 -33 -57 -65 -41
-38 -40 33 11 -40 -60 -73 -40
-40 -33 33 12 -41 -66 -71 -44
-37 -37 34 18 -33 -67 -73 -48
-36 -41 38 22 -31 -68 -76 -46
-37 -30 40 17 -33 -66 -73 -45
-43 -30 37 17 -41 -63 -75 -42
-46 -36 32 14 -39 -58 -79 -41
-42 -24 31 14 -36 -64 -76 -50
-42 -27 25 15 -39 -67 -76 -51
-47 -40 29 13 -39 -65 -76 -46
-47 -35 34 15 -42 -72 -76 -46
-46 -43 36 17 -43 -72 -78 -48
-49 -53 44 15 -46 -70 -78 -51
-54 -47 43 13 -49 -71 -74 -50
-48 -51 42 13 -45 -72 -77 -43
-42 -52 41 15 -40 -73 -74 -40
-51 -45 36 17 -38 -70 -74 -45
-61 -50 44 18 -43 -69 -75 -49
-54 -47 46 13 -50 -64 -74 -45
-50 -39 40 12 -53 -62 -78 -44
-45 -43 27 8 -47 -63 -80 -50
-52 -46 34 7 -44 -65 -80 -53
-47 -42 39 15 -42 -78 -80 -51
-45 -42 37 14 -46 -81 -82 -55
-50 -48 38 10 -45 -74 -85 -59
-54 -52 42 12 -48 -77 -85 -57
-53 -46 43 9 -50 -70 -82 -53
-49 -40 53 9 -47 -72 -82 -48
-44 -45 60 20 -46 -79 -73 -48
-51 -47 53 25 -51 -78 -63 -51
-51 -53 58 23 -51 -75 -74 -47
-45 -55 58 19 -49 -80 -77 -47
-51 -57 40 4 -50 -78 -81 -55
-58 -69 43 1 -50 -70 -84 -59
-57 -57 38 11 -53 -74 -79 -56
-55 -45 49 15 -46 -67 -75 -47
-48 -52 56 20 -40 -66 -74 -47
-46 -45 54 23 -44 -71 -65 -47
-49 -53 59 19 -43 -65 -66 -45
-53 -65 61 17 -44 -65 -74 -47
-54 -64 62 14 -46 -69 -77 -47
-58 -70 53 10 -52 -71 -75 -50
-56 -68 54 13 -57 -71 -73 -49
-51 -60 68 19 -50 -67 -66 -48
-43 -65 63 15 -41 -63 -67 -53
-43 -73 57 17 -50 -63 -73 -58
-50 -74 51 10 -57 -71 -80 -59
-49 -70 54 6 -49 -78 -86 -59
-41 -54 48 13 -46 -78 -86 -59
-39 -46 50 17 -40 -75 -80 -57
-43 -50 55 21 -35 -73 -75 -57
-41 -56 62 18 -38 -69 -76 -50
-41 -58 77 19 -41 -68 -66 -48
-35 -57 70 18 -44 -71 -62 -46
-40 -72 69 15 -51 -68 -64 -43
-42 -77 69 15 -47 -73 -63 -50
-42 -81 72 9 -50 -75 -74 -52
-43 -84 70 11 -52 -68 -77 -52
-49 -84 60 10 -50 -69 -80 -62
-45 -79 66 10 -47 -68 -80 -58
-40 -70 66 9 -48 -64 -72 -58
-36 -71 58 11 -51 -64 -77 -57
-35 -76 55 13 -52 -67 -80 -54
-40 -72 54 16 -48 -69 -81 -62
-38 -62 58 24 -52 -77 -81 -65
-35 -61 62 22 -48 -73 -80 -62
-34 -60 65 23 -40 -68 -75 -62
-25 -59 63 24 -40 -68 -77 -57
-26 -55 68 22 -45 -65 -74 -59
-22 -48 66 23 -45 -75 -75 -61
-27 -55 60 24 -46 -73 -79 -61
-26 -50 63 27 -44 -67 -77 -59
-28 -43 68 25 -43 -74 -76 -61
-29 -47 69 19 -41 -73 -84 -51
-31 -48 73 20 -37 -74 -82 -50
-26 -49 69 15 -39 -82 -79 -57
-31 -53 68 12 -53 -84 -81 -55
-30 -56 63 14 -56 -85 -84 -58
-29 -60 58 11 -55 -88 -90 -64
-29 -61 59 13 -54 -82 -89 -60
-31 -55 54 8 -58 -81 -90 -61
-30 -53 53 10 -55 -78 -92 -59
-24 -52 50 11 -54 -77 -90 -60
-22 -47 48 12 -53 -78 -95 -66
-21 -47 42 12 -51 -81 -96 -70
-23 -50 40 10 -51 -85 -98 -68
-20 -39 45 8 -53 -86 -97 -68
-23 -40 45 6 -56 -87 -101 -68
-26 -41 49 7 -49 -84 -98 -65
-22 -38 48 6 -49 -89 -98 -69
-25 -40 46 6 -54 -89 -97 -75
-25 -40 48 4 -53 -93 -96 -75
-26 -39 48 6 -52 -93 -96 -72
-25 -40 49 4 -48 -89 -95 -72
-28 -42 50 5 -55 -91 -103 -68
-29 -43 45 1 -57 -91 -109 -68
-38 -51 41 0 -63 -92 -106 -71
-40 -56 38 -5 -68 -94 -103 -73
-40 -58 34 -7 -66 -99 -102 -76
-49 -63 31 -5 -67 -91 -100 -74
-50 -65 30 -15 -69 -95 -105 -71
-53 -60 29 -16 -68 -96 -103 -71
-48 -55 26 -17 -72 -94 -106 -64
-45 -53 28 -16 -72 -91 -109 -70
-43 -52 30 -15 -65 -89 -107 -71
-39 -49 23 -15 -71 -89 -110 -75
-30 -44 25 -6 -67 -86 -113 -72
-31 -44 28 -5 -64 -90 -108 -69
-32 -40 28 -4 -60 -88 -106 -74
-36 -46 26 0 -63 -90 -115 -79
-39 -52 29 -3 -65 -96 -118 -88
-39 -56 35 -6 -72 -105 -126 -88
-46 -65 28 -7 -75 -113 -129 -93
-45 -65 32 -10 -69 -115 -121 -97
-46 -65 36 -13 -75 -113 -118 -88
-48 -66 35 -16 -72 -106 -115 -82
-52 -67 36 -22 -75 -101 -116 -72
-48 -63 33 -13 -76 -101 -111 -75
-45 -65 38 -7 -74 -102 -109 -77
-47 -73 42 -8 -71 -100 -109 -78
-48 -78 44 -2 -69 -101 -112 -83
-43 -85 35 -4 -67 -102 -117 -82
-44 -81 37 -8 -65 -101 -117 -81
-51 -74 42 -7 -64 -101 -117 -85
-53 -74 33 -9 -64 -98 -123 -87
-52 -75 42 -5 -64 -98 -131 -91
-54 -71 39 -1 -71 -104 -122 -97
-57 -72 35 -13 -68 -105 -122 -91
-60 -64 37 -11 -64 -97 -122 -86
-55 -53 37 -7 -68 -96 -117 -87
-50 -56 41 -12 -66 -99 -114 -78
-53 -62 42 -14 -68 -100 -116 -83
-51 -71 50 -4 -72 -102 -118 -80
-47 -85 42 -4 -68 -106 -118 -82
-52 -81 43 4 -69 -101 -116 -87
-45 -67 38 9 -69 -106 -109 -84
-46 -70 29 0 -57 -99 -120 -88
-45 -61 31 6 -56 -91 -126 -82
-46 -60 20 6 -69 -96 -121 -88
-55 -72 17 4 -69 -98 -132 -94
-53 -73 19 10 -70 -106 -136 -100
-56 -72 20 6 -71 -104 -138 -102
-62 -70 15 0 -70 -106 -142 -99
-64 -57 21 -1 -75 -112 -144 -96
-53 -56 31 -8 -79 -110 -139 -97
-49 -57 38 -9 -84 -107 -133 -91
-50 -53 48 -6 -84 -102 -124 -86
-40 -49 39 -3 -81 -107 -123 -78
-31 -45 43 0 -73 -93 -126 -80
-29 -39 35 -1 -76 -96 -117 -83
-22 -46 32 -1 -68 -95 -118 -81
-19 -54 22 12 -59 -95 -119 -84
-16 -55 26 19 -76 -95 -124 -98
-17 -66 32 20 -75 -93 -129 -89
-31 -73 24 24 -64 -92 -128 -97
-31 -60 19 27 -64 -86 -125 -96
-37 -52 16 24 -60 -92 -113 -100
-51 -40 14 16 -55 -88 -109 -98
-56 -39 22 17 -68 -103 -117 -89
-49 -38 35 18 -57 -95 -105 -85
-52 -26 54 28 -61 -95 -103 -78
-44 -19 67 30 -53 -82 -107 -66
-49 -26 87 32 -42 -58 -100 -62
-20 -9 71 27 -53 -70 -92 -52
-23 -11 77 23 -50 -76 -89 -53
-20 3 68 28 -54 -85 -77 -41
-20 15 69 23 -40 -89 -76 -45
-16 13 83 31 -30 -70 -83 -40
-11 31 69 39 -39 -61 -68 -38
5 30 69 45 -13 -42 -79 -28
16 36 63 60 1 -20 -62 -41
31 53 53 61 7 -20 -53 -34
39 62 45 65 14 -25 -53 -24
45 91 52 60 7 -27 -49 -15
40 100 45 42 2 -20 -42 -15
30 93 43 40 -11 -13 -52 -19
46 104 37 47 -19 -12 -39 -17
49 93 33 41 -11 -24 -44 -10
50 95 24 42 -7 -39 -48 -20
52 108 22 31 -9 -41 -42 -26
53 108 12 31 -8 -38 -45 -12
56 115 11 28 -15 -30 -45 -12
64 118 -2 13 -17 -22 -44 -16
51 107 -16 15 -30 -11 -39 -9
57 119 -31 7 -41 -14 -35 2
46 119 -22 -2 -34 -15 -24 7
54 122 -18 -4 -26 -31 -25 14
42 113 -29 -13 -40 -32 -29 0
31 106 -14 -27 -38 -32 -34 4
28 86 -15 -34 -43 -50 -41 -11
27 92 -24 -32 -54 -51 -58 -18
12 71 -20 -28 -55 -53 -57 -29
7 64 -19 -24 -55 -58 -61 -24
8 68 -18 -22 -53 -50 -61 -30
6 60 -15 -20 -50 -50 -69 -32
6 49 -15 -22 -64 -55 -67 -30
-6 44 -11 -37 -72 -59 -62 -30
-23 21 -11 -38 -72 -55 -66 -44
-25 15 -16 -37 -85 -61 -76 -40
-36 2 -12 -35 -79 -68 -80 -52
-37 -8 -3 -31 -73 -80 -87 -59
-25 -10 0 -30 -71 -86 -90 -64
-35 -20 8 -41 -67 -79 -98 -73
-33 -27 8 -48 -79 -93 -113 -78
-36 -41 6 -46 -82 -91 -123 -72
-50 -42 10 -44 -87 -97 -125 -90
-50 -50 16 -39 -93 -108 -128 -93
-59 -54 10 -35 -93 -107 -130 -92
-59 -62 13 -45 -95 -111 -131 -103
-59 -75 18 -47 -97 -116 -138 -103
-66 -80 19 -55 -100 -124 -142 -106
-69 -86 15 -60 -104 -123 -152 -116
-81 -95 2 -60 -117 -128 -160 -113
-82 -80 -1 -61 -111 -135 -151 -122
-68 -80 7 -57 -101 -135 -152 -119
-71 -85 16 -47 -95 -129 -142 -110
-82 -80 20 -46 -98 -128 -133 -104
-72 -64 14 -43 -82 -130 -137 -101
-62 -70 25 -30 -79 -117 -144 -109
-62 -66 27 -26 -85 -118 -144 -101
-67 -68 31 -35 -83 -128 -150 -98
-71 -63 25 -28 -93 -127 -161 -101
-61 -66 14 -33 -94 -122 -156 -111
-72 -76 23 -32 -87 -112 -146 -116
-74 -111 23 -13 -68 -119 -159 -109
-69 -108 27 17 -65 -123 -164 -113
-86 -123 75 58 -26 -139 -218 -138
-90 -132 121 162 9 -149 -219 -174
-94 -169 167 223 55 -111 -225 -204
-91 -181 190 326 105 -87 -216 -223
-75 -182 289 361 172 -76 -215 -251
-50 -170 295 450 237 -39 -201 -235
19 -116 313 498 310 55 -127 -165
70 -29 307 500 375 126 -30 -80
66 51 269 501 428 276 103 1
147 138 223 468 497 405 191 52
204 224 173 426 470 528 376 189
276 335 107 327 493 649 553 347
350 479 25 209 444 768 744 481
449 589 -77 36 424 934 925 679
524 673 -241 -130 348 1065 1115 876
580 877 -384 -394 273 1213 1322 1027
672 983 -562 -631 191 1363 1499 1201
759 1050 -713 -896 107 1489 1653 1346
759 1045 -820 -1097 -39 1489 1719 1448
681 1030 -839 -1237 -125 1437 1677 1406
657 916 -813 -1322 -266 1252 1502 1301
531 707 -777 -1332 -410 1030 1244 1134
389 534 -675 -1334 -493 741 926 957
202 333 -587 -1326 -696 364 563 668
55 221 -520 -1316 -909 5 241 434
-65 90 -456 -1371 -1089 -311 -5 239
-129 96 -406 -1340 -1186 -508 -184 100
-188 14 -355 -1278 -1205 -602 -301 3
-222 -23 -324 -1171 -1187 -665 -363 -73
-237 -85 -273 -1056 -1133 -704 -433 -133
-240 -116 -254 -960 -1079 -717 -484 -251
-238 -148 -237 -850 -987 -701 -513 -302
-248 -192 -220 -749 -922 -651 -508 -333
-218 -191 -191 -653 -819 -593 -483 -318
-211 -208 -156 -581 -720 -525 -439 -310
-197 -192 -121 -462 -632 -460 -403 -292
-183 -205 -97 -400 -495 -380 -342 -258
-163 -185 -77 -300 -410 -344 -292 -236
-140 -173 -56 -232 -328 -272 -284 -205
-113 -157 -39 -183 -277 -225 -221 -165
-99 -134 -26 -150 -204 -185 -209 -164
-73 -118 -10 -108 -174 -173 -168 -133
-51 -106 -3 -98 -157 -164 -146 -134
-43 -123 -5 -91 -155 -155 -143 -101
-46 -120 -28 -77 -157 -148 -138 -103
-53 -126 -11 -49 -136 -128 -141 -114
-64 -120 -4 -11 -110 -128 -140 -128
-81 -113 10 -2 -98 -109 -145 -114
-70 -112 27 11 -71 -105 -146 -109
-69 -117 15 6 -76 -107 -150 -122
-84 -120 16 15 -77 -105 -148 -121
-81 -118 33 14 -82 -103 -151 -136
-65 -119 43 21 -85 -109 -155 -123
-63 -125 29 17 -96 -96 -157 -122
-73 -128 14 22 -81 -90 -167 -121
-73 -119 25 18 -83 -98 -157 -120
-70 -112 34 19 -82 -104 -148 -130
-67 -111 31 22 -81 -106 -150 -122
-66 -111 19 14 -74 -116 -143 -127
-59 -108 23 19 -68 -126 -149 -118
-58 -108 34 19 -68 -123 -149 -115
-60 -99 36 19 -61 -113 -139 -116
-54 -106 50 38 -58 -110 -133 -85
-45 -112 40 36 -49 -101 -130 -79
-52 -102 45 29 -40 -87 -125 -80
-53 -100 43 38 -51 -85 -114 -81
-49 -104 36 42 -50 -86 -116 -87
-48 -99 44 39 -43 -83 -118 -84
-42 -82 28 37 -41 -88 -116 -90
-37 -72 33 47 -34 -79 -122 -79
-41 -80 34 58 -18 -70 -119 -84
-40 -85 29 64 -18 -70 -121 -90
-34 -82 37 62 -21 -74 -122 -86
-36 -90 36 57 -19 -76 -126 -82
-41 -89 38 68 -15 -74 -119 -74
-39 -86 41 66 -18 -70 -102 -74
-35 -85 51 63 -22 -69 -95 -71
-31 -73 49 68 -20 -67 -91 -64
-24 -70 44 71 -13 -61 -93 -63
-18 -68 40 73 -8 -60 -94 -55
-19 -66 27 73 2 -53 -97 -58
-23 -71 25 81 12 -44 -96 -69
-22 -67 27 89 22 -51 -96 -70
-22 -60 30 93 29 -49 -97 -56
-18 -55 38 93 32 -45 -88 -55
-14 -52 46 95 29 -37 -77 -52
-19 -56 50 100 30 -29 -68 -44
-24 -57 41 103 39 -21 -65 -40
-14 -53 43 98 41 -23 -64 -37
0 -43 48 98 51 -26 -64 -29
0 -40 43 108 71 -17 -61 -29
-4 -46 45 110 68 -8 -51 -26
-2 -41 53 109 66 0 -47 -24
-1 -37 44 112 72 0 -49 -20
5 -40 42 113 83 4 -42 -22
11 -36 45 132 93 12 -29 -14
17 -27 37 142 100 15 -29 -16
16 -30 39 139 112 30 -29 -11
15 -33 41 147 125 34 -20 -3
25 -23 35 146 136 35 -14 0
32 -14 39 153 143 52 -3 10
35 -14 39 167 149 62 5 23
38 -13 43 174 159 61 14 21
35 -13 32 173 162 66 25 21
29 -18 35 180 173 78 35 31
40 -7 38 187 194 93 46 43
55 13 24 196 209 107 56 47
60 17 23 204 222 123 61 60
56 20 22 208 236 129 66 72
62 37 18 205 246 134 79 74
76 48 28 228 249 156 92 86
83 57 34 237 250 169 102 109
87 65 30 243 278 181 122 113
92 71 14 259 295 190 142 120
100 78 17 276 312 213 158 134
110 78 2 286 324 226 170 151
132 84 -6 303 335 239 176 159
150 94 2 316 352 262 182 155
144 94 -15 338 367 272 193 167
146 101 -37 332 368 292 214 184
165 119 -41 340 384 318 239 202
177 133 -50 356 405 345 262 224
180 157 -81 372 435 349 274 229
172 171 -69 375 451 357 288 242
170 175 -63 377 459 368 302 254
178 178 -75 372 449 373 313 257
185 176 -62 386 456 386 322 273
205 188 -74 385 466 396 340 292
213 190 -74 381 483 400 339 309
214 192 -78 385 473 406 360 311
219 199 -87 401 479 408 363 329
221 201 -91 398 475 421 365 337
226 222 -108 386 491 434 373 336
245 244 -110 398 491 444 381 351
247 256 -125 406 499 455 393 350
252 249 -121 416 500 465 411 360
260 238 -124 418 499 461 408 369
268 241 -127 403 500 474 404 358
257 227 -129 402 507 484 419 367
262 213 -129 403 501 483 428 366
269 235 -126 396 491 478 437 371
269 246 -118 384 479 476 440 377
258 231 -107 386 482 471 436 382
243 229 -94 378 461 460 434 364
236 229 -80 367 435 445 419 361
229 215 -66 358 432 428 395 348
213 210 -75 341 423 421 370 325
195 185 -68 325 395 403 353 302
175 188 -63 319 374 382 344 299
157 198 -50 305 351 367 334 289
165 189 -37 290 327 331 319 283
147 173 -22 280 304 308 294 261
122 153 -8 264 279 280 280 258
116 120 -2 252 262 259 252 231
112 115 9 258 241 253 231 221
97 100 12 247 243 240 215 199
81 90 22 227 239 227 200 192
83 88 37 229 215 200 185 179
63 76 42 211 189 184 170 159
35 58 35 203 168 180 151 143
25 49 27 196 142 159 135 124
24 36 39 179 155 143 110 109
26 34 30 161 150 126 102 96
19 25 41 161 148 118 88 84
8 8 55 165 125 107 72 83
3 10 54 139 107 86 53 76
-5 -4 70 117 91 80 47 59
-11 -6 64 117 68 56 37 49
-14 -21 60 100 56 42 18 37
-34 -35 53 95 43 34 4 24
-30 -44 37 74 28 23 -13 8
-29 -51 49 61 34 20 -20 4
-29 -51 42 59 25 9 -13 0
-29 -47 37 51 31 0 -28 4
-29 -42 40 37 25 0 -33 -4
-35 -36 32 35 7 -14 -35 -17
-33 -42 38 36 3 -22 -51 -21
-42 -43 47 41 12 -22 -51 -25
-36 -36 53 37 -2 -28 -53 -34
-33 -54 50 27 -7 -36 -63 -24
-46 -58 43 26 -12 -32 -60 -27
-40 -44 37 28 -9 -40 -52 -29
-35 -51 38 22 -10 -40 -56 -35
-39 -52 38 18 -10 -46 -63 -41
-44 -50 34 15 -19 -54 -63 -43
-42 -52 39 19 -15 -45 -62 -36
-41 -51 44 22 -15 -42 -67 -42
-56 -54 45 18 -14 -46 -77 -46
-53 -57 54 15 -10 -52 -75 -37
-43 -51 44 13 -11 -65 -77 -39
-50 -49 36 11 -17 -58 -85 -51
-57 -48 38 9 -22 -56 -77 -53
-60 -42 39 10 -28 -57 -72 -49
-60 -40 39 5 -38 -59 -78 -39
-52 -42 27 -7 -44 -60 -79 -43
-56 -43 29 -1 -35 -57 -84 -53
-53 -47 32 8 -32 -68 -86 -54
-53 -50 26 2 -34 -78 -90 -58
-58 -48 36 5 -29 -74 -95 -62
-56 -40 41 12 -29 -70 -86 -59
-58 -34 39 12 -27 -63 -86 -57
-58 -28 49 13 -29 -71 -95 -47
-52 -30 50 6 -46 -66 -86 -48
-51 -38 38 7 -56 -64 -82 -55
-51 -47 36 14 -52 -73 -88 -54
-48 -42 45 7 -45 -79 -91 -55
-52 -37 38 -1 -40 -85 -95 -62
-58 -46 44 -1 -42 -81 -96 -59
-57 -40 43 2 -46 -72 -90 -53
-61 -40 44 7 -43 -71 -89 -53
-55 -39 48 5 -42 -66 -87 -60
-39 -25 47 8 -40 -73 -84 -55
-35 -36 50 15 -36 -74 -85 -49
-41 -46 44 11 -43 -77 -81 -49
-41 -43 43 8 -49 -77 -89 -50
-48 -51 35 9 -53 -78 -97 -57
-45 -54 27 4 -58 -78 -95 -64
-50 -55 29 10 -57 -76 -94 -64
-43 -46 15 8 -54 -82 -98 -73
-37 -41 24 10 -51 -80 -102 -66
-42 -41 24 11 -47 -83 -98 -66
-48 -32 26 6 -52 -87 -96 -73
-46 -31 30 5 -53 -76 -97 -58
-42 -30 33 8 -46 -74 -93 -56
-37 -23 44 17 -45 -75 -88 -55
-42 -33 42 13 -47 -74 -78 -48
-41 -41 58 20 -42 -74 -74 -47
-24 -36 60 22 -43 -79 -68 -45
-29 -48 57 14 -48 -70 -73 -50
-35 -58 51 16 -56 -72 -79 -49
-41 -63 40 4 -57 -74 -87 -54
-43 -69 42 4 -50 -72 -91 -59
-42 -60 31 13 -54 -81 -90 -64
-54 -53 37 22 -45 -71 -84 -62
-44 -51 47 24 -38 -72 -86 -61
-34 -51 50 22 -43 -72 -91 -59
-39 -51 45 21 -44 -68 -87 -53
-41 -50 37 20 -47 -70 -84 -58
-36 -46 43 25 -52 -67 -79 -53
-29 -42 51 23 -45 -66 -78 -53
-27 -44 58 29 -32 -68 -78 -52
-27 -47 59 34 -31 -68 -75 -50
-33 -48 65 32 -31 -62 -76 -62
-29 -43 66 29 -32 -66 -80 -61
-30 -42 57 27 -34 -61 -77 -55
-26 -46 49 32 -32 -63 -77 -54
-27 -46 45 26 -34 -68 -79 -57
-29 -46 53 26 -29 -66 -81 -57
-30 -49 58 38 -31 -71 -78 -50
-30 -46 57 33 -27 -69 -71 -51
-34 -46 56 35 -28 -63 -70 -53
-27 -45 52 37 -24 -61 -74 -47
-23 -44 50 29 -27 -62 -76 -50
-26 -43 46 31 -35 -66 -81 -56
-31 -50 39 27 -34 -68 -86 -56
-30 -51 46 25 -34 -61 -90 -59
-33 -44 54 32 -33 -63 -83 -58
-36 -41 47 32 -32 -62 -84 -53
-30 -41 45 31 -28 -64 -85 -58
-25 -40 45 35 -29 -73 -79 -64
-22 -37 43 30 -40 -74 -85 -62
-20 -37 48 28 -43 -70 -96 -61
-19 -37 46 31 -46 -69 -92 -60
-5 -35 47 28 -42 -76 -96 -59
-12 -33 46 36 -38 -73 -89 -68
-21 -28 45 43 -40 -74 -83 -63
-20 -34 51 33 -37 -77 -93 -66
-23 -38 58 24 -40 -78 -102 -70
-29 -37 55 19 -49 -89 -103 -68
-30 -47 52 12 -49 -89 -106 -70
-33 -48 50 13 -57 -84 -101 -70
-25 -47 42 9 -60 -88 -98 -70
-22 -51 42 7 -55 -91 -102 -66
-30 -48 42 12 -56 -89 -94 -65
-31 -42 37 7 -63 -90 -101 -68
-30 -42 33 2 -59 -85 -108 -66
-26 -38 26 -2 -64 -79 -103 -72
-27 -36 27 1 -67 -82 -110 -77
-23 -33 27 3 -61 -89 -114 -80
-26 -37 20 0 -62 -92 -121 -81
-26 -34 17 -3 -63 -92 -125 -81
-31 -33 25 -7 -68 -96 -125 -89
-34 -28 32 -2 -70 -99 -118 -84
-30 -28 28 -3 -69 -100 -117 -82
-26 -29 30 -8 -72 -95 -118 -87
-21 -30 31 -10 -73 -101 -114 -83
-24 -35 29 -7 -75 -99 -114 -76
-17 -37 32 -4 -64 -98 -108 -81
-22 -41 37 1 -69 -98 -114 -85
-24 -48 28 -2 -78 -96 -124 -79
-32 -56 28 -14 -78 -97 -124 -80
-34 -59 27 -14 -78 -106 -119 -86
-34 -59 15 -8 -86 -110 -122 -92
-42 -64 14 -4 -78 -92 -119 -93
-42 -67 16 -10 -76 -94 -118 -90
-31 -63 10 -10 -77 -95 -121 -85
-27 -54 3 -7 -79 -94 -125 -82
-30 -49 8 -12 -79 -92 -125 -86
-28 -45 7 -15 -78 -90 -121 -83
-26 -36 2 -14 -83 -90 -127 -91
-16 -33 11 -4 -80 -91 -126 -89
-15 -36 13 -2 -75 -98 -122 -81
-19 -29 18 -5 -68 -94 -122 -95
-15 -30 18 -5 -73 -96 -130 -94
-24 -38 15 -14 -76 -96 -131 -95
-29 -39 12 -19 -80 -105 -136 -100
-24 -43 10 -13 -85 -115 -141 -97
-21 -45 10 -14 -81 -118 -133 -100
-30 -46 12 -17 -88 -115 -126 -98
-31 -52 11 -19 -84 -109 -124 -91
-30 -49 11 -24 -87 -108 -124 -87
-35 -40 5 -18 -84 -105 -126 -88
-39 -43 3 -16 -78 -105 -130 -90
-39 -43 2 -16 -79 -104 -128 -96
-39 -40 2 -15 -84 -108 -135 -98
-36 -47 6 -16 -82 -106 -143 -98
-40 -45 7 -14 -80 -105 -137 -100
-45 -44 5 -15 -85 -104 -140 -99
-41 -44 6 -17 -87 -105 -143 -96
-36 -35 8 -19 -86 -110 -142 -96
-41 -39 11 -16 -81 -114 -142 -101
-45 -43 9 -18 -89 -115 -142 -103
-47 -42 13 -28 -94 -112 -139 -104
-42 -45 11 -30 -94 -112 -142 -102
-40 -48 0 -29 -92 -110 -147 -103
-48 -49 6 -31 -88 -111 -146 -104
-46 -41 14 -30 -93 -120 -140 -97
-37 -30 16 -29 -90 -122 -141 -97
-40 -36 20 -27 -83 -112 -144 -107
-41 -41 19 -25 -87 -112 -145 -105
-44 -35 22 -28 -88 -112 -142 -103
-44 -33 23 -34 -81 -116 -148 -101
-47 -31 18 -24 -88 -115 -148 -107
-49 -31 13 -22 -89 -110 -144 -109
-45 -34 20 -25 -88 -115 -141 -107
-41 -34 19 -29 -91 -118 -148 -101
-43 -37 8 -30 -93 -118 -156 -112
-48 -40 6 -30 -96 -118 -156 -119
-48 -38 7 -31 -98 -119 -154 -110
-47 -26 4 -32 -100 -124 -153 -105
-47 -24 7 -40 -100 -125 -156 -110
-42 -19 -2 -38 -100 -122 -152 -106
-46 -20 -5 -36 -98 -127 -155 -112
-48 -16 6 -41 -96 -130 -160 -110
-40 -17 16 -32 -97 -128 -160 -111
-39 -22 5 -19 -98 -126 -161 -111
-42 -29 16 -26 -96 -119 -160 -113
-33 -16 19 -23 -94 -123 -155 -101
-41 -10 21 -27 -91 -124 -145 -106
-37 0 19 -31 -93 -116 -141 -96
-34 8 21 -29 -89 -114 -132 -90
-37 15 28 -30 -77 -109 -129 -96
-32 34 32 -24 -82 -101 -128 -85
-12 35 27 -13 -65 -100 -125 -77
-14 41 19 1 -62 -87 -117 -88
0 56 28 5 -53 -78 -111 -79
4 61 34 23 -32 -80 -104 -76
12 77 36 20 -37 -87 -105 -58
9 71 48 7 -43 -77 -94 -54
7 72 34 15 -44 -70 -87 -60
5 75 23 14 -50 -63 -90 -57
8 67 34 14 -39 -57 -95 -47
9 75 30 22 -34 -76 -83 -52
16 81 34 16 -36 -67 -87 -55
23 83 28 21 -37 -59 -88 -49
27 93 25 14 -37 -61 -86 -45
36 102 5 7 -38 -47 -88 -43
32 105 -5 10 -47 -38 -84 -42
36 116 -17 5 -41 -40 -76 -42
30 119 -8 0 -52 -39 -73 -34
41 122 -12 -7 -54 -55 -71 -35
38 117 -21 -19 -58 -65 -72 -36
41 114 -26 -29 -60 -60 -71 -27
33 112 -22 -33 -57 -62 -69 -46
38 121 -25 -25 -57 -62 -79 -37
38 110 -30 -23 -61 -62 -81 -37
39 108 -24 -29 -60 -65 -82 -44
33 104 -23 -32 -69 -66 -77 -42
28 102 -30 -34 -69 -66 -83 -38
20 91 -27 -37 -73 -68 -81 -43
17 85 -23 -44 -76 -76 -81 -41
1 66 -25 -46 -82 -74 -84 -54
-8 60 -24 -53 -96 -79 -93 -53
-11 41 -23 -55 -91 -91 -94 -58
-11 39 -26 -56 -94 -99 -100 -64
-17 34 -21 -55 -96 -94 -103 -77
-29 23 -18 -56 -89 -97 -114 -75
-23 23 -22 -59 -94 -99 -118 -80
-19 19 -22 -59 -99 -96 -125 -78
-30 7 -15 -60 -102 -101 -126 -87
-36 4 -7 -60 -105 -106 -123 -85
-42 -4 -12 -54 -106 -105 -131 -91
-43 -16 -6 -56 -108 -110 -141 -101
-45 -20 0 -56 -111 -123 -145 -106
-52 -28 7 -59 -107 -131 -149 -114
-45 -33 9 -60 -108 -135 -157 -119
-53 -43 2 -68 -119 -129 -162 -124
-57 -45 0 -70 -120 -131 -169 -133
-49 -50 0 -62 -119 -133 -173 -125
-51 -52 5 -61 -116 -136 -169 -124
-58 -53 6 -60 -121 -143 -162 -129
-58 -47 0 -62 -121 -143 -164 -130
-58 -55 -1 -67 -120 -140 -169 -137
-60 -58 0 -73 -122 -147 -170 -134
-63 -57 0 -80 -125 -157 -174 -126
-68 -54 -4 -78 -129 -153 -177 -132
-68 -56 -17 -81 -140 -152 -182 -136
-70 -48 -18 -83 -132 -148 -172 -136
-57 -47 -12 -81 -116 -150 -168 -128
-59 -44 -16 -74 -117 -148 -166 -115
-58 -36 -3 -77 -113 -145 -160 -113
-63 -26 -4 -72 -113 -149 -160 -117
-57 -39 5 -68 -105 -144 -171 -126
-77 -48 5 -68 -107 -153 -180 -124
-86 -56 50 -40 -85 -164 -183 -126
-103 -67 54 -13 -82 -180 -200 -147
-100 -74 55 -7 -71 -166 -203 -153
-103 -72 69 6 -63 -168 -202 -171
-126 -93 80 23 -57 -170 -233 -203
-110 -81 100 68 -45 -159 -231 -200
-150 -86 151 138 -15 -169 -258 -204
-136 -71 195 237 27 -128 -234 -231
-100 -71 214 327 82 -82 -220 -219
-45 -68 208 382 146 -14 -187 -195
-8 -43 215 387 188 62 -124 -173
76 7 200 456 249 135 -49 -92
150 80 190 419 322 262 109 35
235 200 151 367 358 409 282 161
280 276 90 286 397 558 452 293
344 382 5 128 408 693 614 423
426 516 -81 16 322 851 793 572
496 585 -177 -142 303 949 945 738
547 702 -264 -335 269 1077 1129 897
624 835 -380 -492 221 1204 1255 1018
687 925 -529 -648 117 1280 1399 1157
678 1038 -617 -842 62 1367 1524 1249
690 1092 -726 -962 -21 1381 1535 1253
656 977 -785 -1092 -95 1336 1459 1228
599 837 -821 -1153 -276 1141 1298 1124
465 720 -780 -1196 -434 851 1037 922
360 540 -758 -1223 -610 501 735 713
239 371 -695 -1205 -761 175 425 503
78 247 -578 -1141 -869 -99 172 328
-71 129 -486 -1114 -953 -319 -69 121
-124 53 -401 -1059 -1022 -498 -249 -8
-219 -17 -379 -1054 -1095 -631 -367 -140
-241 -29 -337 -1038 -1072 -661 -476 -200
-246 -51 -317 -945 -1023 -661 -488 -241
-237 -55 -296 -856 -980 -638 -484 -269
-196 -69 -259 -743 -892 -603 -466 -256
-177 -70 -238 -659 -786 -556 -455 -292
-171 -80 -204 -545 -701 -512 -433 -294
-173 -103 -166 -458 -613 -468 -407 -295
-139 -107 -141 -374 -532 -419 -401 -265
-118 -110 -120 -312 -468 -381 -366 -264
-111 -123 -85 -246 -426 -359 -342 -259
-124 -127 -73 -217 -362 -315 -313 -252
-106 -116 -53 -155 -298 -283 -254 -220
-98 -122 -44 -127 -235 -227 -239 -205
-68 -96 -24 -107 -201 -191 -202 -172
-69 -78 -19 -99 -162 -162 -194 -172
-67 -83 -11 -85 -164 -167 -180 -165
-51 -79 -14 -76 -177 -177 -182 -157
-49 -90 -19 -75 -179 -164 -194 -148
-48 -84 -37 -47 -163 -167 -186 -146
-53 -81 -21 -37 -152 -158 -191 -143
-56 -78 -5 -18 -127 -163 -195 -158
-61 -76 -7 -21 -139 -158 -202 -153
-53 -74 -3 -19 -117 -161 -192 -149
-59 -65 -2 -20 -110 -160 -191 -154
-59 -75 0 -19 -111 -156 -201 -143
-58 -88 1 -28 -116 -154 -204 -156
-57 -82 5 -26 -120 -160 -198 -147
-53 -77 4 -26 -117 -151 -197 -139
-60 -71 0 -18 -88 -134 -196 -143
-64 -57 0 -23 -91 -129 -179 -137
-55 -56 4 -33 -99 -132 -173 -139
-54 -55 6 -27 -98 -136 -173 -132
-50 -51 4 -31 -98 -142 -167 -133
-44 -53 2 -29 -89 -142 -170 -131
-50 -56 2 -26 -91 -133 -171 -125
-39 -57 -2 -21 -88 -131 -169 -126
-32 -56 5 -5 -79 -132 -166 -119
-36 -57 14 2 -68 -129 -162 -117
-36 -53 18 10 -59 -120 -155 -115
-30 -47 20 12 -64 -113 -151 -117
-32 -52 25 13 -71 -106 -149 -118
-37 -48 21 19 -72 -105 -152 -112
-28 -40 11 21 -60 -113 -152 -116
-22 -38 16 27 -44 -112 -155 -108
-19 -41 15 29 -31 -110 -153 -111
-28 -48 15 40 -39 -101 -151 -127
-33 -56 28 53 -45 -101 -158 -113
-24 -58 20 44 -43 -109 -158 -106
-21 -52 8 41 -48 -104 -151 -110
-23 -47 16 53 -41 -96 -144 -108
-19 -45 15 55 -36 -100 -136 -108
-23 -41 11 55 -34 -91 -137 -107
-21 -42 13 57 -22 -89 -144 -106
-12 -26 17 59 -14 -85 -138 -96
-14 -23 23 63 1 -75 -127 -92
-19 -39 26 76 7 -77 -125 -91
-13 -35 36 77 0 -79 -123 -87
-15 -38 27 79 0 -74 -121 -88
-15 -43 34 91 7 -67 -123 -84
0 -24 40 93 16 -60 -107 -77
7 -16 26 95 26 -54 -102 -78
13 -19 25 101 35 -47 -105 -66
12 -18 11 97 40 -39 -97 -68
7 -20 10 103 48 -32 -101 -69
13 -18 13 114 61 -25 -99 -67
9 -19 19 114 65 -22 -96 -67
10 -16 33 115 74 -30 -88 -65
12 -11 32 120 76 -33 -81 -59
11 -16 44 124 71 -22 -74 -53
18 -27 40 132 76 -13 -63 -49
30 -19 30 143 83 1 -61 -40
44 -14 29 154 104 17 -54 -36
44 -12 23 168 121 23 -51 -31
56 0 19 165 130 23 -42 -20
58 5 17 184 135 39 -30 -16
57 1 13 193 138 51 -24 -6
56 6 7 189 152 55 -10 -17
54 13 -2 201 166 70 -5 -13
59 10 -4 204 179 76 0 -3
73 11 -1 206 194 87 11 12
83 24 -3 225 202 94 24 31
95 36 -5 227 218 112 39 37
91 36 -3 241 232 132 50 56
105 50 -17 241 237 134 65 64
126 72 -12 253 244 157 79 74
138 82 -16 260 244 176 93 104
142 91 -31 268 268 186 106 98
139 99 -38 275 279 196 114 99
141 95 -40 282 299 204 128 107
148 93 -54 296 313 209 132 118
162 109 -65 308 326 220 135 119
173 117 -63 314 341 243 149 126
170 132 -77 329 352 256 166 148
179 154 -88 320 356 273 193 162
203 168 -83 330 359 292 218 193
219 187 -96 344 372 315 233 215
226 199 -108 355 404 322 241 218
228 197 -113 357 410 323 253 224
214 200 -113 362 426 333 257 226
211 205 -121 360 426 341 265 231
217 209 -123 364 433 347 271 236
229 220 -120 360 437 354 273 250
226 221 -127 349 445 355 287 261
225 220 -135 352 435 367 305 258
226 225 -127 363 423 372 307 276
228 229 -129 358 422 386 310 282
229 242 -138 357 447 388 314 294
236 251 -127 363 456 391 326 299
236 271 -127 378 458 399 337 299
237 268 -128 380 454 401 343 300
238 258 -123 379 451 404 339 299
252 268 -125 370 443 397 331 295
242 262 -138 363 450 398 329 296
230 246 -143 355 441 400 323 292
220 251 -154 335 430 382 320 289
210 254 -144 321 412 371 308 269
203 242 -139 322 402 350 304 276
192 241 -123 317 394 344 303 268
195 245 -114 307 372 337 292 264
192 234 -102 301 360 323 272 255
178 223 -92 289 345 315 261 253
166 212 -92 277 313 294 245 230
152 195 -84 267 300 278 221 219
135 185 -73 257 279 262 203 204
133 184 -69 240 266 230 192 183
114 162 -46 231 257 206 174 165
97 145 -38 216 229 195 154 150
87 134 -26 215 206 178 126 124
81 117 -20 207 176 162 102 110
73 102 -20 190 165 133 74 97
62 89 -17 169 155 113 58 79
50 70 0 168 133 96 41 48
33 55 12 165 102 71 24 36
6 38 13 157 82 62 12 24
9 22 17 146 63 46 -9 7
10 19 34 138 77 27 -20 1
2 15 33 121 57 15 -21 -15
4 8 29 114 42 0 -41 -22
-6 -12 25 101 24 -6 -67 -33
-10 -4 28 82 12 -22 -84 -47
-12 -9 29 73 6 -34 -86 -54
-28 -22 28 68 0 -43 -92 -55
-23 -27 39 46 -17 -60 -98 -66
-41 -42 34 43 -30 -61 -105 -78
-44 -49 27 42 -41 -70 -119 -79
-39 -36 35 33 -32 -80 -114 -81
-29 -32 38 24 -33 -75 -111 -82
-20 -37 32 22 -31 -79 -117 -79
-24 -32 26 16 -39 -77 -119 -80
-26 -23 19 20 -36 -89 -117 -80
-20 -27 28 31 -36 -89 -132 -90
-33 -25 32 30 -37 -84 -132 -93
-34 -25 38 26 -38 -88 -125 -96
-27 -43 25 26 -40 -93 -139 -93
-36 -49 13 10 -53 -93 -142 -108
-39 -50 22 9 -54 -96 -143 -115
-40 -55 21 20 -60 -110 -144 -107
-42 -53 21 12 -59 -109 -145 -106
-42 -49 22 10 -62 -108 -147 -103
-43 -43 25 10 -59 -109 -137 -106
-45 -43 39 11 -57 -100 -131 -103
-34 -45 35 22 -57 -101 -128 -97
-28 -43 32 25 -63 -100 -136 -100
-30 -43 36 18 -61 -101 -142 -93
-35 -45 35 25 -54 -101 -143 -95
-36 -41 30 24 -58 -105 -144 -102
-35 -42 30 12 -59 -104 -144 -107
-38 -44 21 22 -65 -104 -149 -110
-35 -43 15 23 -64 -111 -155 -115
-36 -51 23 19 -63 -108 -154 -110
-37 -51 18 22 -68 -112 -150 -106
-43 -48 20 20 -65 -109 -155 -120
-38 -50 26 22 -64 -105 -156 -111
-30 -42 21 23 -66 -116 -155 -106
-34 -36 24 23 -67 -113 -156 -112
-27 -36 28 22 -64 -109 -145 -104
-32 -34 31 24 -62 -107 -135 -108
-38 -32 38 25 -63 -102 -139 -104
-36 -36 44 23 -62 -102 -138 -96
-32 -39 35 22 -56 -102 -139 -95
-32 -38 34 25 -56 -98 -143 -98
-33 -47 29 25 -54 -102 -138 -105
-41 -43 29 27 -57 -105 -137 -106
-34 -33 30 27 -60 -102 -134 -98
-26 -33 25 24 -54 -103 -134 -98
-25 -21 28 31 -50 -99 -135 -94
-25 -19 19 36 -56 -95 -137 -93
-27 -28 14 33 -52 -95 -141 -95
-23 -25 22 33 -45 -96 -135 -95
-27 -22 21 38 -47 -88 -140 -101
-35 -19 20 41 -40 -95 -147 -106
-39 -15 23 34 -43 -100 -146 -97
-31 -12 29 25 -45 -101 -134 -93
-30 -11 38 26 -44 -101 -130 -100
-37 -13 43 33 -47 -96 -126 -93
-34 -16 35 33 -39 -95 -131 -89
-32 -9 32 25 -39 -93 -138 -96
-32 1 35 19 -37 -101 -132 -93
-35 10 35 33 -28 -97 -128 -86
-38 13 38 42 -29 -84 -122 -86
-36 9 42 31 -31 -81 -121 -93
-31 4 39 28 -35 -84 -131 -88
-35 2 24 34 -38 -89 -127 -86
-36 1 23 30 -22 -92 -123 -86
-31 6 20 29 -20 -93 -130 -92
-30 17 21 28 -36 -87 -136 -99
-35 5 23 25 -33 -89 -136 -87
-34 -2 22 22 -38 -92 -133 -81
-27 4 18 15 -46 -86 -126 -96
-33 -4 21 15 -47 -84 -132 -97
-32 -4 24 21 -43 -95 -128 -85
-39 7 21 19 -45 -105 -122 -89
-35 10 21 19 -39 -98 -138 -92
-28 15 27 22 -36 -92 -134 -92
-31 21 23 17 -37 -87 -126 -96
-33 5 21 11 -39 -96 -137 -91
-27 7 19 16 -45 -97 -134 -90
-24 20 18 20 -46 -99 -127 -101
-30 12 15 27 -43 -100 -133 -100
-32 19 19 22 -42 -95 -131 -90
-30 24 20 8 -43 -100 -127 -94
-29 9 26 6 -48 -102 -141 -95
-36 6 24 14 -58 -106 -140 -100
-46 2 19 11 -63 -108 -136 -102
-36 -7 22 5 -61 -104 -146 -97
-27 -1 24 2 -62 -111 -141 -99
-34 0 17 0 -61 -112 -139 -98
-41 -1 12 1 -75 -108 -133 -88
-33 1 11 -15 -84 -109 -135 -94
-32 0 7 -24 -85 -116 -145 -99
-22 0 -9 -18 -81 -117 -147 -94
-28 -3 -9 -14 -75 -119 -145 -107
-28 -1 3 -14 -68 -121 -152 -115
-27 -9 5 -13 -76 -121 -163 -117
-33 -7 8 -9 -81 -126 -160 -119
-44 -8 14 -11 -83 -139 -157 -116
-44 -7 16 -13 -86 -134 -160 -121
-47 -4 22 -12 -89 -130 -156 -128
-52 -4 25 -13 -96 -134 -153 -118
-43 -6 24 -15 -93 -140 -150 -108
-42 -7 30 -17 -97 -138 -156 -113
-39 -14 38 -18 -100 -138 -152 -114
-48 -22 31 -10 -106 -141 -153 -109
-46 -19 22 -10 -105 -142 -156 -113
-36 -29 23 -14 -98 -138 -162 -117
-30 -32 25 -6 -99 -132 -158 -116
-34 -33 19 -5 -98 -132 -154 -118
-30 -46 20 -5 -96 -131 -160 -110
-31 -50 17 -13 -98 -132 -158 -117
-45 -46 14 -20 -104 -130 -160 -125
-39 -46 14 -15 -103 -136 -164 -113
-38 -40 12 -11 -101 -140 -156 -114
-30 -26 7 -24 -103 -136 -157 -119
-26 -35 15 -30 -106 -131 -159 -119
-28 -29 12 -22 -108 -129 -149 -112
-26 -20 4 -20 -104 -135 -151 -112
-14 -19 9 -16 -98 -131 -158 -117
-18 -13 9 -13 -101 -140 -154 -121
-28 -13 11 -10 -95 -143 -159 -118
-22 -19 18 -6 -91 -140 -162 -117
-23 -24 27 -7 -98 -141 -155 -131
-28 -33 26 -10 -104 -140 -164 -130
-30 -44 25 -9 -108 -143 -165 -121
-29 -42 22 -13 -100 -150 -158 -116
-36 -38 18 -18 -103 -148 -164 -113
-43 -37 15 -16 -112 -138 -161 -123
-51 -42 15 -23 -114 -141 -157 -124
-43 -45 11 -21 -117 -140 -157 -117
-29 -43 -1 -24 -120 -143 -163 -125
-35 -49 7 -28 -111 -142 -163 -123
-37 -46 9 -21 -110 -145 -162 -111
-32 -32 5 -18 -105 -143 -163 -120
-26 -32 10 -14 -101 -132 -167 -125
-18 -27 10 -9 -109 -133 -169 -116
-24 -24 14 -16 -97 -129 -158 -124
-27 -33 17 -20 -100 -132 -159 -118
-22 -30 22 -15 -111 -137 -157 -115
-32 -32 20 -16 -107 -136 -156 -123
-34 -41 26 -14 -104 -138 -161 -117
-23 -38 20 -14 -101 -144 -158 -118
-25 -31 11 -19 -104 -139 -161 -128
-18 -36 16 -21 -104 -139 -163 -124
-16 -37 12 -18 -106 -137 -166 -124
-18 -30 14 -10 -109 -139 -166 -120
-16 -36 20 -8 -114 -138 -166 -117
-16 -29 7 -5 -105 -137 -162 -114
-21 -31 7 0 -95 -134 -158 -126
-19 -36 0 0 -97 -127 -158 -125
-8 -36 8 -4 -89 -137 -160 -121
-8 -40 1 0 -93 -133 -162 -123
-17 -50 -2 0 -118 -129 -171 -118
-16 -52 7 -2 -107 -129 -168 -118
-20 -52 17 3 -97 -128 -156 -120
-9 -27 5 6 -97 -113 -145 -111
-19 -7 3 14 -71 -105 -133 -118
-24 14 16 20 -62 -101 -119 -98
-15 25 28 17 -77 -98 -121 -88
-17 16 36 18 -66 -94 -127 -100
-28 2 45 21 -74 -96 -124 -103
-13 2 45 26 -67 -89 -134 -98
-13 14 69 42 -49 -85 -124 -98
6 35 70 33 -50 -90 -107 -78
-1 33 70 21 -42 -82 -107 -69
-4 33 73 26 -47 -93 -109 -74
-1 49 71 18 -56 -101 -96 -69
2 56 70 19 -43 -94 -111 -68
-1 73 54 43 -45 -91 -108 -72
20 77 57 36 -28 -75 -103 -58
30 90 59 46 -12 -63 -87 -64
26 91 56 47 -13 -52 -88 -61
32 77 37 41 -12 -45 -91 -56
31 87 27 35 -20 -42 -90 -56
28 96 12 15 -45 -48 -87 -60
22 97 15 7 -64 -54 -90 -52
33 98 12 5 -50 -67 -85 -47
26 91 3 -13 -55 -76 -91 -51
26 88 -4 -25 -61 -78 -102 -48
14 83 -11 -37 -72 -88 -106 -69
19 86 -20 -35 -78 -93 -115 -65
14 82 -30 -34 -83 -91 -107 -66
23 87 -43 -43 -79 -89 -113 -73
16 89 -42 -39 -88 -77 -104 -63
21 96 -54 -45 -90 -77 -99 -52
19 99 -49 -47 -87 -70 -88 -48
25 103 -45 -49 -86 -70 -80 -35
14 90 -53 -52 -87 -67 -79 -46
12 93 -37 -53 -86 -69 -82 -36
12 74 -31 -52 -82 -85 -81 -47
9 73 -26 -42 -79 -87 -94 -57
6 58 -16 -37 -79 -89 -97 -65
-3 45 -4 -40 -70 -85 -101 -70
3 37 -7 -45 -78 -96 -109 -71
-5 21 -10 -46 -82 -96 -123 -73
-18 9 -3 -49 -93 -101 -122 -84
-32 -1 -1 -57 -104 -115 -122 -83
-52 -21 -6 -60 -104 -110 -127 -95
-53 -32 -3 -63 -116 -122 -138 -96
-62 -51 3 -64 -115 -130 -146 -105
-73 -59 2 -67 -121 -141 -152 -116
-65 -57 1 -66 -120 -143 -156 -126
-70 -68 -7 -69 -123 -136 -166 -130
-70 -61 -11 -70 -127 -133 -169 -132
-63 -63 -9 -71 -121 -132 -169 -120
-62 -61 -8 -68 -121 -129 -165 -125
-60 -57 -5 -60 -125 -133 -163 -123
-64 -55 -3 -59 -121 -130 -165 -121
-57 -60 7 -59 -114 -127 -160 -126
-53 -65 7 -56 -116 -140 -162 -124
-55 -69 11 -58 -110 -139 -166 -128
-48 -68 16 -58 -110 -144 -171 -131
-60 -77 12 -61 -113 -144 -173 -135
-60 -74 8 -67 -116 -148 -173 -137
-52 -77 7 -64 -118 -149 -173 -130
-60 -81 14 -62 -114 -144 -170 -129
-64 -76 11 -65 -118 -149 -167 -128
-63 -75 6 -65 -113 -142 -165 -127
-64 -78 7 -62 -116 -143 -168 -128
-64 -77 6 -70 -116 -144 -166 -120
-65 -75 3 -73 -115 -151 -169 -121
-69 -69 -1 -73 -124 -153 -172 -124
-69 -76 -10 -85 -129 -151 -180 -129
-81 -76 -15 -82 -130 -146 -175 -130
-66 -73 -19 -88 -131 -151 -179 -127
-67 -70 -27 -82 -134 -153 -181 -117
-57 -72 -22 -91 -126 -162 -184 -127
-70 -62 -26 -87 -138 -161 -182 -130
-66 -114 -25 -72 -115 -156 -205 -122
-95 -135 -19 -41 -115 -165 -208 -157
-105 -136 64 -2 -50 -174 -236 -174
-116 -167 99 120 3 -182 -245 -208
-121 -162 181 151 36 -142 -222 -227
-136 -154 209 200 70 -159 -213 -235
-151 -172 265 287 125 -170 -260 -252
-95 -103 298 379 202 -112 -230 -256
-76 -58 304 500 274 3 -168 -206
-24 -30 344 614 404 133 -78 -127
-5 56 335 674 505 293 53 -42
132 134 291 701 613 433 130 40
205 207 207 649 582 535 328 150
283 381 161 537 557 687 553 343
402 498 59 349 514 796 769 526
477 560 -75 77 408 956 955 724
517 601 -234 -167 324 1096 1107 899
564 747 -394 -472 248 1150 1276 995
641 890 -510 -672 134 1289 1442 1181
743 937 -620 -820 129 1386 1559 1290
734 892 -682 -960 72 1404 1603 1335
618 817 -699 -1068 -57 1340 1505 1266
589 741 -698 -1160 -265 1095 1304 1108
424 609 -723 -1262 -450 861 1073 950
311 548 -758 -1285 -562 642 800 812
221 395 -743 -1311 -659 416 567 604
93 286 -748 -1292 -886 119 342 414
-6 150 -648 -1305 -1057 -179 72 243
-73 44 -558 -1257 -1183 -495 -112 50
-194 -38 -501 -1198 -1270 -695 -301 -97
-274 -96 -396 -1113 -1255 -781 -460 -172
-297 -104 -350 -988 -1156 -767 -519 -266
-268 -142 -296 -865 -1042 -690 -529 -301
-258 -165 -272 -766 -975 -671 -511 -314
-273 -167 -209 -700 -848 -594 -487 -321
-236 -146 -160 -543 -724 -523 -447 -288
-196 -152 -109 -451 -592 -449 -408 -259
-156 -115 -68 -334 -492 -388 -351 -212
-137 -98 -55 -261 -348 -301 -315 -193
-123 -114 -47 -191 -318 -279 -290 -174
-118 -92 -40 -159 -304 -264 -253 -185
-88 -112 -11 -140 -239 -223 -227 -140
-70 -118 -26 -125 -210 -198 -196 -146
-55 -119 7 -76 -174 -179 -162 -137
-80 -126 5 -52 -148 -141 -144 -146
-88 -121 25 -27 -120 -121 -128 -125
-69 -124 36 -10 -102 -98 -139 -120
-70 -122 31 -17 -107 -100 -138 -132
-80 -115 18 -8 -105 -101 -138 -124
-76 -105 29 -3 -100 -98 -139 -130
-58 -98 41 20 -93 -111 -140 -127
-65 -118 39 14 -93 -91 -154 -125
-75 -118 32 35 -64 -85 -160 -130
-77 -110 37 38 -70 -86 -160 -140
-77 -111 35 39 -68 -91 -169 -152
-88 -111 31 32 -74 -97 -178 -152
-70 -110 23 17 -76 -120 -171 -146
-58 -117 16 12 -91 -132 -179 -140
-68 -125 16 5 -96 -143 -184 -138
-77 -120 23 -4 -96 -139 -174 -150
-69 -121 34 14 -91 -136 -170 -126
-60 -126 30 11 -87 -134 -170 -114
-60 -118 26 -1 -84 -117 -165 -119
-68 -123 25 15 -90 -117 -153 -125
-62 -128 28 19 -90 -119 -158 -134
-53 -118 31 17 -87 -121 -159 -124
-51 -112 22 13 -81 -126 -157 -121
-47 -111 20 23 -73 -117 -156 -112
-50 -115 16 37 -54 -106 -153 -112
-52 -127 13 45 -48 -106 -150 -125
-48 -125 17 48 -60 -105 -149 -114
-47 -131 14 46 -55 -99 -146 -107
-45 -130 12 54 -47 -98 -142 -104
-37 -118 20 55 -49 -97 -138 -102
-45 -122 22 52 -44 -99 -133 -107
-50 -117 15 55 -46 -95 -129 -102
-43 -116 14 55 -36 -91 -133 -99
-40 -116 22 64 -26 -85 -135 -97
-41 -111 22 71 -13 -77 -132 -93
-47 -121 28 73 -9 -69 -125 -91
-40 -121 45 80 -16 -73 -119 -83
-31 -113 34 75 -20 -80 -119 -78
-36 -120 34 74 -11 -73 -118 -77
-35 -118 34 79 -17 -71 -106 -80
-31 -114 24 77 -13 -71 -109 -84
-31 -123 25 80 0 -57 -112 -80
-30 -115 12 85 5 -53 -104 -78
-28 -107 20 90 18 -50 -101 -72
-22 -107 28 103 29 -43 -95 -68
-17 -95 24 112 30 -38 -88 -65
-17 -100 35 115 36 -39 -88 -58
-23 -112 27 115 40 -40 -85 -57
-24 -109 33 115 44 -36 -82 -54
-17 -111 34 124 49 -24 -74 -51
-11 -107 28 134 56 -18 -70 -50
-14 -98 30 139 68 -8 -62 -39
-9 -95 27 141 79 -4 -58 -35
7 -79 26 146 88 -1 -53 -25
10 -74 26 153 100 15 -41 -25
4 -81 26 166 104 30 -43 -23
15 -75 30 172 119 29 -42 -22
17 -75 27 172 128 30 -41 -19
15 -79 32 183 138 36 -33 -13
15 -79 36 192 147 44 -17 -7
27 -69 43 201 156 53 -4 -3
48 -61 39 205 167 64 0 12
39 -69 26 202 180 78 6 15
40 -65 18 201 190 81 20 18
50 -53 22 216 191 97 31 29
54 -48 26 224 205 119 39 46
56 -41 20 235 230 121 52 48
50 -34 5 250 247 139 72 54
53 -26 12 262 266 156 89 62
71 -17 13 262 282 168 100 79
80 -6 2 275 288 183 112 92
83 -3 -2 274 305 204 120 94
80 7 -7 284 320 213 129 111
90 35 -16 283 329 225 145 126
106 51 -11 296 344 246 159 136
109 61 -14 306 342 264 178 159
114 68 -22 316 371 269 194 163
116 74 -22 321 381 273 201 169
118 81 -21 328 394 285 219 183
122 86 -42 336 405 301 236 198
137 100 -48 350 415 322 243 211
156 113 -34 355 432 346 253 218
154 115 -36 365 451 355 264 231
151 117 -55 361 438 374 285 237
160 123 -62 369 445 387 297 250
173 131 -65 371 459 396 309 267
177 153 -85 368 481 400 316 268
171 161 -78 375 482 405 328 279
167 164 -78 383 487 406 331 282
175 164 -77 374 479 407 335 287
177 163 -76 375 478 414 343 292
192 169 -84 368 475 421 354 300
195 163 -86 359 479 423 358 315
198 150 -92 362 469 427 368 313
207 160 -101 363 471 418 367 323
207 169 -95 358 469 424 373 325
202 176 -101 361 479 428 372 329
217 185 -96 355 472 425 372 340
219 203 -99 350 469 426 384 336
222 198 -101 355 462 416 382 337
220 180 -109 351 465 413 372 330
219 174 -110 333 458 417 368 316
208 169 -110 324 448 407 364 326
195 158 -105 311 431 400 356 319
185 162 -106 298 417 387 352 316
177 159 -93 287 399 371 341 303
167 145 -85 266 377 357 336 293
158 138 -72 255 355 340 319 276
154 135 -60 258 339 324 302 275
143 124 -51 246 331 308 289 260
129 120 -39 231 320 299 270 253
118 106 -33 224 295 277 248 228
103 94 -27 215 269 262 229 220
80 71 -27 204 245 241 210 199
73 67 -25 193 218 214 194 177
69 61 -7 181 212 196 176 162
54 45 -5 173 192 178 165 148
45 33 2 168 179 162 141 132
37 17 4 155 155 152 120 119
23 9 6 146 140 134 92 98
13 -3 22 134 122 115 77 90
-1 -20 27 127 102 93 59 69
-9 -33 41 121 77 69 40 56
-20 -47 43 114 60 55 29 45
-27 -58 41 104 41 42 15 26
-30 -58 51 97 42 29 6 20
-31 -65 46 82 31 26 1 11
-27 -68 47 78 26 17 -13 7
-35 -72 40 68 10 10 -27 -2
-42 -64 39 58 10 0 -37 -6
-42 -66 48 52 7 -12 -41 -15
-51 -67 49 45 0 -24 -49 -20
-51 -71 60 32 -7 -28 -52 -27
-59 -85 55 31 -12 -32 -59 -32
-62 -86 54 26 -28 -39 -67 -42
-54 -78 53 15 -20 -49 -69 -37
-53 -76 48 12 -24 -45 -68 -39
-53 -69 45 11 -30 -47 -69 -39
-50 -67 44 3 -35 -51 -75 -38
-53 -66 39 -2 -39 -59 -85 -43
-56 -68 39 -3 -44 -61 -91 -53
-65 -75 37 0 -45 -66 -91 -56
-63 -68 38 0 -53 -77 -89 -64
-58 -61 34 4 -43 -78 -92 -58
-60 -67 29 1 -36 -75 -101 -69
-53 -62 37 3 -38 -70 -103 -66
-56 -60 38 2 -48 -67 -96 -58
-51 -61 33 -3 -50 -69 -101 -58
-45 -61 37 -2 -55 -69 -97 -57
-52 -59 33 -3 -57 -71 -93 -57
-54 -58 39 -6 -53 -77 -97 -59
-52 -55 42 -1 -50 -83 -94 -54
-49 -47 42 -4 -47 -82 -96 -65
-47 -48 48 -5 -48 -81 -103 -63
-53 -51 41 -10 -50 -70 -100 -68
-42 -46 34 -9 -49 -79 -104 -68
-32 -46 28 -8 -53 -79 -107 -67
-45 -43 29 -7 -53 -78 -101 -67
-47 -36 33 -2 -51 -88 -101 -62
-42 -33 34 0 -46 -82 -101 -61
-38 -35 38 -1 -47 -80 -97 -71
-41 -39 41 -3 -53 -83 -104 -66
-42 -38 35 -5 -55 -78 -104 -66
-39 -36 33 -5 -49 -84 -104 -67
-39 -32 30 -5 -51 -81 -103 -63
-44 -26 30 -4 -57 -78 -99 -65
-47 -31 37 -5 -53 -81 -98 -66
-43 -34 37 -1 -50 -80 -95 -63
-37 -25 35 3 -51 -82 -93 -65
-44 -30 42 -1 -45 -79 -92 -63
-42 -30 43 4 -43 -69 -88 -51
-30 -25 37 14 -35 -67 -85 -60
-29 -29 39 22 -39 -64 -90 -62
-30 -30 36 15 -49 -70 -92 -50
-39 -32 35 3 -42 -75 -93 -57
-45 -33 36 6 -48 -76 -92 -64
-43 -34 27 11 -55 -82 -94 -66
-58 -36 27 13 -50 -75 -94 -67
-51 -40 28 3 -47 -73 -100 -65
-39 -42 30 9 -47 -75 -102 -62
-42 -36 31 10 -50 -82 -96 -61
-47 -32 32 3 -53 -85 -98 -62
-41 -33 36 7 -48 -80 -101 -54
-36 -22 32 9 -51 -78 -95 -60
-33 -22 37 14 -46 -71 -93 -56
-36 -32 42 25 -42 -73 -87 -53
-35 -27 45 21 -45 -73 -87 -65
-29 -32 48 19 -45 -70 -95 -56
-35 -40 37 19 -40 -69 -90 -59
-38 -34 40 20 -39 -73 -87 -64
-38 -33 44 22 -41 -78 -93 -60
-39 -33 46 19 -39 -79 -90 -59
-44 -35 48 9 -42 -76 -85 -58
-43 -43 51 14 -39 -70 -81 -55
-38 -39 53 22 -42 -72 -83 -52
-41 -33 57 22 -36 -73 -86 -50
-38 -44 63 29 -29 -71 -88 -47
-33 -44 52 32 -39 -80 -87 -58
-33 -48 50 24 -41 -78 -94 -64
-35 -55 53 28 -45 -74 -102 -61
-38 -49 42 21 -45 -78 -96 -67
-45 -50 45 21 -43 -70 -99 -68
-36 -45 42 30 -43 -75 -97 -63
-34 -40 56 34 -31 -77 -97 -68
-39 -41 59 38 -25 -75 -97 -71
-31 -40 54 32 -29 -79 -98 -71
-35 -34 56 29 -36 -68 -95 -66
-30 -33 64 23 -36 -70 -93 -63
-30 -37 68 33 -33 -74 -88 -58
-33 -43 58 31 -37 -80 -85 -59
-32 -58 69 29 -42 -83 -89 -60
-31 -66 71 29 -40 -85 -86 -62
-44 -70 58 25 -44 -88 -97 -72
-43 -74 52 22 -47 -86 -103 -69
-43 -76 41 9 -48 -84 -103 -70
-45 -71 43 5 -48 -78 -106 -73
-45 -70 33 10 -55 -85 -112 -67
-51 -70 29 12 -59 -87 -113 -68
-47 -68 33 2 -63 -92 -113 -78
-53 -69 34 0 -66 -87 -116 -81
-51 -65 33 4 -59 -86 -118 -79
-45 -63 27 3 -61 -88 -118 -75
-32 -58 34 0 -59 -85 -113 -73
-27 -54 38 -1 -64 -89 -112 -79
-26 -55 38 0 -65 -85 -111 -74
-27 -58 28 0 -65 -92 -115 -74
-22 -53 29 -3 -63 -89 -117 -81
-26 -53 33 -3 -62 -95 -117 -87
-35 -49 34 4 -57 -101 -119 -90
-26 -49 36 6 -50 -102 -117 -84
-28 -54 29 0 -58 -97 -117 -94
-36 -61 41 0 -57 -96 -124 -96
-41 -68 45 3 -68 -101 -123 -86
-44 -75 31 0 -69 -99 -118 -85
-49 -80 33 -4 -72 -100 -120 -80
-46 -76 33 -5 -72 -95 -110 -84
-50 -82 39 -3 -69 -102 -108 -79
-47 -89 39 -4 -70 -97 -106 -75
-42 -85 32 -9 -79 -94 -108 -76
-46 -92 31 -14 -75 -90 -116 -78
-44 -86 26 -7 -69 -79 -115 -72
-37 -74 19 1 -66 -83 -114 -81
-35 -75 21 2 -58 -87 -120 -91
-34 -75 20 1 -66 -87 -124 -83
-36 -69 19 -1 -59 -91 -120 -88
-46 -77 27 -2 -59 -94 -123 -92
-44 -74 25 1 -70 -92 -121 -85
-43 -71 19 0 -66 -90 -122 -93
-41 -74 27 -3 -65 -88 -119 -87
-28 -71 21 -4 -67 -96 -117 -80
-35 -73 24 0 -64 -102 -120 -84
-39 -77 30 -5 -66 -106 -120 -89
-46 -81 30 -4 -72 -106 -122 -90
-52 -78 26 1 -70 -101 -125 -93
-50 -80 23 0 -68 -92 -128 -93
-45 -82 23 3 -62 -91 -126 -84
-50 -79 22 -2 -68 -100 -122 -92
-49 -78 23 -5 -71 -96 -126 -92
-52 -84 24 -2 -71 -99 -125 -86
-58 -83 22 -7 -72 -98 -126 -91
-52 -79 18 -8 -72 -96 -133 -85
-50 -77 16 -7 -71 -97 -130 -89
-50 -68 16 -8 -72 -89 -124 -90
-47 -71 21 -9 -75 -88 -125 -83
-42 -70 24 -9 -74 -93 -123 -86
-39 -60 17 -9 -74 -102 -128 -87
-41 -65 20 0 -66 -99 -132 -91
-43 -66 17 0 -69 -99 -128 -96
-40 -64 16 -3 -69 -97 -133 -98
-39 -71 13 4 -66 -93 -137 -97
-39 -73 11 5 -73 -97 -135 -100
-42 -76 11 0 -73 -101 -137 -94
-44 -79 17 1 -75 -104 -137 -94
-37 -70 14 0 -81 -108 -137 -94
-51 -75 13 -4 -76 -112 -140 -105
-60 -68 13 -5 -77 -111 -138 -105
-58 -63 19 -12 -82 -113 -140 -105
-56 -67 23 -14 -77 -107 -139 -96
-56 -67 26 -7 -76 -108 -136 -92
-56 -62 28 -8 -69 -105 -134 -92
-62 -58 42 -5 -69 -101 -129 -88
-45 -40 37 -11 -72 -106 -124 -77
-48 -40 41 -15 -64 -98 -118 -79
-49 -34 36 -6 -67 -92 -107 -71
-47 -23 41 -8 -63 -91 -105 -70
